MEAN_RR,pNN50,MEAN_REL_RR,LF,HF,sampen,y
885.1578446,0.533333333,-0.000202986,1009.249419,15.5226025,2.139754004,0
939.4253707,0,-5.88E-05,690.1132748,2.108525418,2.174498785,1
898.1860468,0.2,-1.09E-05,1298.222619,13.76972944,2.135349707,1
881.7578645,0.133333333,0.000111762,1005.981659,18.18191348,2.178340631,0
809.6253311,0.2,-9.96E-05,1421.782051,48.2158224,2.221120909,0
923.2838661,0.6,0.00074966,151.1451487,11.02745997,0.582616332,0
973.252908,0,-0.000123819,483.1144752,1.489795771,2.161460851,0
715.9146819,0.2,3.11E-05,437.878087,28.91345272,1.110738888,0
814.2570213,0.8,-0.00018672,1003.315816,20.75778727,2.174232755,1
959.694591,0.2,5.12E-05,522.3102814,2.572458989,2.171599745,0
848.6209148,0,-7.93E-05,653.7106071,45.56665987,2.206018299,1
933.5856051,1.066666667,0.000183202,1109.178958,8.92065054,2.022375836,0
708.8872922,0.266666667,-6.24E-05,615.8265211,49.65837943,2.089419554,0
772.7466067,0.066666667,4.50E-05,405.0194374,30.347138,2.082336544,1
810.7478068,0,1.29E-05,1293.066172,57.01103364,2.19660569,0
627.7869333,1.4,-9.56E-06,781.7556382,254.9739534,2.147714192,0
925.6988472,0.733333333,2.58E-05,820.4457333,13.052115,1.994747279,0
761.9227151,1.333333333,-0.000135924,1632.398999,52.75079589,2.021139908,0
776.4001781,0,-5.97E-05,747.1193377,17.37854763,2.215251331,1
810.5444307,0.866666667,2.35E-05,774.771012,40.04765215,2.088672363,1
801.0011941,0,5.46E-05,292.8638578,13.71396785,1.914366664,0
811.1076348,0,3.39E-05,296.1447644,9.918353288,1.780498232,0
793.6120423,0.666666667,0.000458292,960.5523479,42.08593313,1.58928653,1
994.5599086,1.733333333,-6.26E-05,1969.203032,7.302294849,2.090519802,1
775.171469,0.6,0.000114857,758.9951899,29.87049417,2.074665772,1
729.5015011,1.933333333,0.000102714,2420.937774,149.7187407,2.208484531,1
864.2132614,1.333333333,-0.000111831,1987.25732,41.50587709,2.191371162,1
922.0927323,0,0.000221206,657.1690608,2.252476617,2.063643486,0
571.6601676,0.133333333,-3.87E-05,569.5350474,36.7083368,2.027469981,1
863.244837,0.733333333,-4.20E-06,715.6525128,43.61888158,2.038726931,0
739.8203525,0,-2.50E-05,408.8518131,46.85526022,2.182094782,0
983.3893159,1.666666667,-4.74E-05,2142.656059,12.76885163,2.203219831,0
771.6711513,0,-9.11E-05,274.8402653,28.44628205,2.19011449,1
925.6768888,0.733333333,5.12E-05,834.5685724,12.72913749,1.994949977,0
856.0275776,1.466666667,-6.72E-06,646.0488282,47.09973226,1.809153365,1
938.1048518,0.133333333,-2.51E-05,554.4792379,2.683660185,2.205622651,1
949.9758168,0.2,8.01E-05,670.7925644,1.245185444,2.130545254,1
822.1515483,2.133333333,-9.42E-05,825.4140539,89.37312203,1.908165868,1
714.8008667,1.533333333,-0.000216811,2141.244421,152.478973,2.142721231,0
792.2463529,0.266666667,-1.27E-05,884.3277854,15.65886583,2.175399118,0
854.3363245,1,-9.21E-05,870.3027963,49.24638463,1.827712306,1
797.7778075,0,-3.35E-05,342.789459,12.78698788,1.873651339,0
771.8306245,0,-3.51E-05,266.8541912,33.32743986,2.18553071,1
789.8233839,0.4,-6.67E-05,969.5012213,22.65073411,2.144435937,0
797.5565245,2.933333333,0.00053129,1129.321077,125.2596543,1.532765171,0
775.2157269,0,-1.69E-05,686.5032393,17.08294677,2.19284459,0
997.6272109,1.533333333,4.86E-05,1714.314973,15.15057959,2.222072439,1
817.3710611,0.066666667,-2.04E-05,1132.415835,42.98891241,2.186765786,0
787.196185,0,9.31E-05,586.212289,43.56341087,2.214257408,0
766.4249848,0,9.43E-06,405.1428904,19.45369571,2.139859825,1
1022.57853,1.533333333,0.000147936,1678.653512,9.535792709,2.225928828,1
787.2624685,0.8,-5.74E-05,1093.442013,32.88109448,2.190400682,1
1050.397293,2.6,-0.000524076,677.8191666,11.95703052,2.171654366,0
759.5248097,0,2.42E-06,421.5268091,18.05823415,2.185404121,1
930.8841579,0,1.64E-05,814.2774791,2.453544631,2.188716511,1
832.8546421,1.6,-0.000348928,1160.60408,73.08532828,2.029018183,0
766.5930198,1.066666667,-0.000588112,610.5708018,47.76653317,1.834579233,1
1098.972912,0.8,3.74E-05,981.3040011,0.464913239,2.174444008,1
875.1250105,1.6,-0.000255221,1004.722085,44.03901149,2.159647334,1
766.9481816,0.2,0.000160615,507.7924304,29.55704116,2.155576986,0
924.5860466,0.133333333,2.39E-05,547.9278335,3.93275187,2.205348212,1
697.732585,1,0.000141399,1931.79762,122.9004436,2.19284459,0
757.6748785,0,7.38E-05,537.4953584,24.28913451,2.129362699,0
793.2506518,0.133333333,-0.000104753,783.5411353,15.82063719,2.178945694,0
919.151936,1,-0.000121174,1317.682517,19.66004194,2.198247115,0
835.088832,0.6,-1.53E-05,1154.672262,43.86406905,2.168981433,1
878.580298,1.266666667,7.14E-07,2091.108978,28.45769117,2.186908393,1
729.6363105,0,-2.99E-05,337.1791191,42.40532609,2.126196154,0
988.1410855,1,-0.000121281,1578.497052,7.692607844,2.108100024,1
942.7002255,0.733333333,0.000180506,659.8244439,41.27095279,1.205735531,0
989.0857139,1.933333333,-3.39E-05,972.0300906,18.31017263,1.972633642,1
787.8219557,0,-6.67E-05,967.2619841,16.23859179,2.176378661,0
761.857954,0,-6.34E-05,429.6358192,19.08883965,2.17604159,1
904.4351936,0.333333333,-2.08E-07,827.9526222,16.95731674,2.200935256,1
791.4315016,0.266666667,3.58E-05,845.8478499,18.56464697,2.176849183,0
1075.408183,1.666666667,0.00013461,2055.574017,1.735214053,2.195150679,0
760.0252917,3.066666667,0.000107785,1793.175194,86.26941132,2.152142796,0
865.1936544,0,1.90E-05,686.2207844,9.13278011,2.13091228,1
720.5715426,2.4,-4.82E-05,2164.282863,154.1045435,2.177602479,0
811.0858941,0.866666667,-9.57E-06,825.9669458,48.47865253,2.070503178,1
886.3620064,0.4,2.17E-05,848.806773,13.86877796,2.208516916,1
790.6597343,0.4,1.55E-05,1008.010449,21.95562495,2.141281934,0
976.3979373,1.066666667,-4.48E-05,1368.591027,8.65341901,2.095395574,1
591.3144293,2.4,2.02E-05,1229.405533,354.611707,1.947288016,0
833.2517039,0.133333333,-0.000244021,528.9352272,11.83176188,2.055989115,0
664.6097691,0.2,-4.03E-05,460.5525235,35.10404184,1.921900067,0
750.9449224,1.666666667,0.000173399,1386.687164,132.5146184,1.859285772,1
727.9005589,0,-3.33E-05,336.0978947,45.82523144,2.12680777,0
1003.830864,0.4,6.79E-05,857.6429046,7.755681477,2.004576272,1
793.3845719,0.133333333,-0.000168119,645.1799269,32.13652984,2.147759905,0
778.2204374,3.733333333,8.86E-05,3098.154372,123.3677309,2.226777749,1
751.355356,0,-3.05E-06,483.9304319,18.44395409,2.178914253,0
734.0355307,0,7.13E-05,424.3865782,28.83811956,2.194847152,0
638.9433424,0,5.37E-05,251.3502791,35.99800595,1.246575347,0
927.9091593,0,-2.50E-07,439.0306088,3.924489422,2.188462543,0
962.9814396,0.6,-0.000251924,1251.208438,13.48206507,2.111231731,1
859.8321327,0.333333333,0.000232085,576.8445166,27.60665832,1.987665609,1
730.6784764,1.6,0.000572853,1036.803955,116.4734351,1.894978628,1
729.2982664,0,4.63E-05,286.5127056,44.07697738,2.138492575,0
863.7537734,0.533333333,-1.41E-05,718.9290925,25.6867288,2.152112187,0
803.2235466,0,0.000244812,639.9873261,20.24242257,2.063783582,1
1116.980646,2.533333333,-0.000109351,601.6266539,34.90449662,2.044715958,1
754.9361725,0.6,-0.000165193,1070.682572,37.92450429,2.069248614,0
778.3960585,3.933333333,6.79E-05,2968.842649,127.7068074,2.219318768,1
753.4700044,1.066666667,-7.35E-05,813.6975024,33.58394079,1.906931507,1
764.4850539,0.2,-3.70E-05,761.5988216,20.91209958,2.182828368,1
790.0511876,0.6,-0.000191635,1666.831852,21.67552504,2.090361522,1
758.9976901,1.866666667,-4.59E-05,2697.066267,120.1468627,2.224512817,1
835.4396925,0.2,-7.64E-05,522.669309,25.52573728,2.166432056,1
853.7002432,1.266666667,-7.46E-05,2039.76395,36.32644727,2.176018078,1
702.2897644,1.466666667,7.79E-05,1148.440595,122.5233253,1.94134509,0
876.495722,0.266666667,3.74E-05,705.9861048,9.512663027,2.123812931,0
731.7006072,0,7.97E-05,384.211226,22.67637974,2.097067167,0
894.7924191,1,2.70E-05,1562.877921,14.5645794,2.03996428,1
750.6346243,0.133333333,5.70E-05,536.9183168,99.60402389,2.210591706,1
988.446627,1.066666667,-0.00023416,1240.952689,7.842638951,2.068445956,1
890.1172275,2.133333333,0.000135816,1347.16955,34.35980769,2.109140394,1
713.5337655,1.333333333,5.55E-05,686.1178801,101.0137977,1.649241228,0
783.3665571,0,8.22E-05,327.8581589,17.2235905,2.197710352,1
768.3762039,0.466666667,-7.91E-05,520.8396718,47.49229834,2.164206671,0
804.0562951,0.066666667,-4.86E-05,549.5470946,65.29415176,2.18433667,1
652.5423967,1.466666667,-7.58E-05,793.6418769,113.2372447,1.781242584,0
859.472803,0.466666667,6.87E-05,716.2272119,32.23273328,2.169261638,0
729.8576815,0,-1.65E-05,587.7464707,45.38161516,2.044640358,0
992.0440795,2.333333333,-0.000167941,1122.994388,7.799422477,2.126047036,1
762.6472709,1.866666667,5.43E-05,2797.015896,114.294828,2.224282493,1
1088.015501,0.933333333,-6.51E-05,1133.567797,0.840246546,2.170593689,1
776.4654562,0.133333333,2.03E-05,625.5914372,36.28980002,2.173919868,0
870.2586935,0,2.30E-05,647.471722,8.429547245,2.052734439,0
841.9333421,0,0.000121807,531.3377521,23.57097652,2.021603202,0
705.4229488,0,1.28E-05,256.018568,46.69008916,2.125555104,0
923.5066165,0.6,0.000237055,985.312259,8.750206352,2.117147796,0
1024.195584,1,-2.32E-05,830.5372166,2.525187307,2.21567527,1
932.5577448,1.266666667,0.000212125,987.6887011,28.03441705,1.953210022,0
776.8199951,0.066666667,-3.04E-05,560.8863072,89.54538044,2.080019872,1
1051.267966,0.466666667,-0.000237567,751.5016309,1.476008705,2.08965676,1
901.8466448,0.733333333,-5.39E-05,823.4540118,17.73405854,2.178961415,1
1048.598293,0,7.46E-05,443.731681,0.653106483,2.027361899,1
840.7834979,0.266666667,-3.57E-06,561.7862679,30.57588803,2.190853985,1
730.1767777,0,6.11E-05,353.7167004,29.52243748,2.175312964,0
984.2213797,2.666666667,4.86E-05,2103.202797,10.44008768,2.167418392,1
815.7531352,0.066666667,5.28E-05,1464.937203,19.37664652,2.093510246,0
785.9192505,3.066666667,8.57E-05,1789.818426,82.61383502,2.152609705,0
900.0398569,0.6,8.48E-05,724.797932,19.94442276,2.159948073,1
1028.422001,3.4,0.000175944,2649.503803,3.566053058,2.173310022,0
1067.554715,0.733333333,-2.37E-05,1200.614064,0.895545422,2.188494285,1
921.8740693,1.2,0.000187718,1259.392994,33.70653902,2.097436597,0
905.3651509,0,1.67E-05,362.2170851,6.924565332,2.195654097,0
959.4869638,0,-7.47E-05,527.7153822,2.779055395,2.195502246,0
827.6863867,1.733333333,0.000106326,1150.112138,68.96714969,2.040087415,0
706.1833723,0.266666667,-5.67E-05,623.8952661,49.20391695,2.077566494,0
771.7295712,0.066666667,5.58E-05,399.2399896,33.64589368,2.092212088,1
756.9322991,0.266666667,0.000181826,511.528671,42.00922459,2.176386502,0
743.058567,0,3.83E-05,395.3641134,46.98330585,2.179614046,0
783.3682826,0,-0.000202992,712.3132127,17.17917122,2.10971966,1
806.0029167,0.133333333,-6.22E-05,780.9533265,32.61302051,1.690511468,1
1095.725014,0.666666667,0.000680198,309.6840755,2.92716783,2.180928463,1
804.479219,0.2,0.000126361,776.77435,23.03063797,2.188629202,0
1103.805661,3.066666667,0.000125613,2033.962827,1.499139404,2.158714847,1
1006.836439,2.333333333,5.43E-05,1891.784308,9.851584961,2.162210369,1
828.2783774,0.733333333,-1.90E-05,705.4625428,94.5919727,1.801460812,0
703.1522017,1.466666667,2.77E-05,1193.684295,118.2494343,1.953799763,0
618.1374517,1.2,0.000679082,701.4519049,59.35846832,1.319673287,0
929.1017501,1.266666667,-0.000157107,621.1435314,23.52570612,1.52232425,0
1001.649351,2.533333333,-0.000178314,2012.351393,9.226294994,2.109396989,1
933.419369,3.266666667,-0.000100469,2000.948622,9.909623406,1.959501764,1
784.9290235,0.2,7.06E-05,1071.169825,29.56275274,2.122668026,0
768.5960196,0,0.000155237,241.8551493,17.78210258,1.961080905,0
903.7274521,2,0.000137121,662.7558585,76.17376995,1.91762377,1
863.7660676,1.6,0.000120233,1005.422978,32.8874849,1.831003878,1
785.8086336,0.066666667,4.76E-05,1033.711929,23.57886285,2.142872856,0
937.3233799,1.533333333,3.64E-06,1623.796058,20.71148331,2.178285644,1
1135.915277,3.066666667,-0.000108145,1733.284655,1.550711773,2.043623748,1
685.9895644,1.933333333,0.000388169,736.6045628,153.1418809,1.560560922,0
675.0706032,0.933333333,0.000243159,755.455001,78.79471255,1.673473114,0
740.0583626,0,-0.000159664,402.5422128,46.1776336,2.216997158,0
855.8266587,1.533333333,-5.79E-05,1060.477416,40.95810005,1.840596599,1
941.5835076,2.466666667,-0.00013306,1064.355424,38.26842755,2.049096764,1
784.3551693,0.133333333,-9.79E-05,669.5567879,35.36555622,2.178246369,0
920.1204646,0.466666667,-2.15E-05,952.4591494,8.599231426,1.897223763,0
1118.389522,0.4,1.83E-05,948.8799216,0.330468895,2.182560113,1
971.5368434,0.2,-4.05E-05,617.5791448,2.559765368,2.122445145,0
947.187643,2.6,0.000238761,855.9743454,81.68133669,1.756363993,0
707.7156232,0,4.55E-06,454.1460934,25.92682703,2.001504194,0
634.1976366,0.666666667,-4.54E-05,1037.016585,68.94271316,2.006949411,1
711.2256215,1.333333333,-1.38E-05,2342.534156,135.661653,2.204267331,1
964.0782041,2.6,0.00050084,850.5759196,78.61332384,1.836469377,0
882.2512823,0,-2.85E-05,272.6807473,10.00504266,2.202575761,1
840.9433656,0.133333333,3.13E-05,1109.620443,10.78963785,2.191355245,1
877.3674163,1.933333333,8.47E-05,1069.031258,30.21992055,2.110974664,0
798.8981236,0,-0.000148037,325.8492426,12.30104866,1.895688943,0
888.850614,0.666666667,-0.000218921,756.2352694,8.011961924,2.064989221,1
765.0756681,0,7.35E-05,418.0871518,18.63990309,2.152525492,1
1100.829803,0.933333333,-0.000205153,1097.311954,2.4075253,2.043067798,1
972.7224477,0.4,1.24E-05,1103.503405,5.273696427,2.133920975,0
710.37427,1.2,0.000296206,809.7892912,137.9113909,2.075749899,0
1005.77773,1.866666667,7.42E-06,577.0374414,53.20983741,1.834868935,1
894.9461974,0.4,-1.88E-05,776.646161,18.59074375,2.207012146,1
832.5248426,0.2,5.54E-05,1188.474504,9.668192802,2.168180166,1
1207.046453,2.4,-3.16E-05,486.4929164,0.502591287,2.146351385,1
1223.311536,1.066666667,0.000110167,566.2229177,0.606522189,1.957572284,1
898.8452715,0.733333333,-6.51E-05,887.4974535,23.12129473,2.185103538,1
804.1001295,0.133333333,-0.000121153,790.1183307,33.94214494,1.682747722,1
688.6665059,0.266666667,-3.56E-05,288.6683406,20.61688238,0.801947996,0
787.5777885,3.533333333,1.92E-05,2959.67234,115.2103612,2.220965142,1
954.6487867,1.2,6.56E-05,1199.812109,5.801771516,2.175688963,0
982.721105,1.066666667,-0.000321118,788.0018816,5.77729433,2.215830216,1
549.1736775,1,-7.01E-06,715.9650505,268.6855106,1.55189092,1
834.593653,1.133333333,2.59E-05,676.4963275,37.36449926,1.666047091,1
878.4386772,0,3.03E-06,280.2688311,11.09934512,2.173567988,1
887.0012624,1.933333333,-0.000187141,1013.231474,29.93027883,2.113474684,0
871.8057302,1.866666667,1.81E-05,1424.279959,40.50404753,2.01336984,1
943.2467572,0.6,0.00020729,778.4573135,4.622907918,2.166812496,1
767.6167607,0,8.60E-05,412.5473443,25.46969139,2.142516573,1
730.666569,0,-7.20E-05,628.9632285,19.39375984,2.205114191,0
729.4072945,0,-4.20E-05,273.191324,37.72008706,2.177885111,0
723.1703974,1.8,-1.71E-05,2547.17141,137.1319573,2.205380495,0
1041.390644,0.8,-5.57E-05,990.2220436,9.865485547,2.142296802,1
1046.730114,1.333333333,0.000255699,552.4117873,21.51985548,2.029959092,1
966.5331748,0.4,0.000198911,856.9326596,9.933319496,2.156706405,1
920.5589699,2.733333333,-0.000185736,767.7673477,47.53538207,1.943131713,0
821.3524649,0,0.000106617,731.5891572,16.3437801,2.185981811,1
819.7227503,0,-5.23E-05,1304.893673,40.59891614,2.206971727,0
850.1488864,0.2,0.000130251,1465.320518,10.30049463,2.170695029,1
768.4977796,3.533333333,-7.16E-05,2978.902559,121.5448848,2.217699612,1
1092.582346,0.533333333,-9.41E-06,881.2718589,1.649661214,2.134484704,1
817.0028128,0,1.64E-05,298.9228294,9.799763325,1.726074174,0
1035.105033,1.333333333,0.000164043,1991.050945,4.489569544,2.120686129,0
728.7652818,0,2.86E-05,281.270549,44.81922592,2.137300589,0
953.8808881,0.2,4.54E-05,512.0766084,2.469249394,2.18529337,1
861.7454604,0.733333333,2.79E-05,763.9250015,53.76005003,2.057199306,0
903.4303961,0.733333333,1.52E-05,819.3423538,17.70009408,2.178796359,1
665.824775,0.2,7.65E-06,333.4630301,34.96221414,1.913492256,0
915.9874929,1.466666667,0.000214909,830.5145664,16.97885638,1.98680905,0
967.7459332,0.6,-9.01E-05,832.1075828,8.055576879,2.12686746,1
807.2294392,2.066666667,0.00019787,1317.955578,37.36150409,2.059784556,0
822.8386264,0,0.00019415,262.2211631,20.11919107,1.962111849,0
804.5718675,0.266666667,5.09E-05,1354.264241,57.74065841,2.19239835,0
831.6156107,0,-9.45E-05,845.4592769,11.9836558,2.184154922,1
813.3629218,0,2.29E-05,494.1557415,26.28678024,2.061537405,0
1025.69848,3.266666667,-5.71E-05,2579.472623,3.298755183,2.162086699,0
739.2657732,0,4.51E-05,383.8003511,49.04064122,2.18240235,0
760.9289644,0,-5.32E-05,711.8338788,18.82288121,2.136697594,1
1320.698265,1,-4.51E-05,134.6587329,4.283924269,1.175261384,0
759.934879,0,-6.79E-05,608.7783375,96.76575792,2.161908949,1
900.622468,0.133333333,6.89E-05,523.5939161,7.065454091,1.943367687,0
792.1333801,0.133333333,-0.000217228,878.5547192,33.67563704,1.669526487,1
879.408776,0,-5.98E-05,523.3667438,5.783343036,2.204751163,0
1107.308453,2.466666667,-0.000147574,712.3056056,17.8485332,2.130260714,1
589.3781189,2.466666667,-0.000321615,1165.476128,299.2002154,1.819058678,0
727.3117155,2.266666667,0.000117193,2466.652339,145.4890673,2.194807221,0
807.0230999,2.4,-0.000666327,766.8758481,44.17566531,1.648353046,0
833.7557996,0,0.000166164,903.5239175,13.90087033,2.184613307,1
715.9414029,0,8.27E-05,396.3943752,24.08243581,2.12653921,0
879.9648233,0.2,5.71E-05,932.536021,6.016458804,2.187883419,0
585.2173158,0.2,-0.00025257,206.8956727,21.06756122,1.757307124,0
729.4707354,0,-6.06E-06,312.0545149,42.13684051,2.119492949,0
791.2308203,0.733333333,-0.000229727,1064.596702,37.52065844,2.101443891,0
719.9825238,1.733333333,-4.87E-06,1371.079178,133.1265658,1.91113216,1
814.1725539,0,2.40E-05,430.1375241,28.6027316,2.183215098,0
747.4469371,0.133333333,-0.000173604,756.834782,46.81094215,1.912486126,1
879.1347493,2.666666667,3.77E-05,1667.528873,26.5953248,2.057526448,1
900.8732036,0.8,0.00031264,714.3790534,7.51214711,2.094781188,0
707.9589011,0.8,0.000212505,1880.414779,88.60290112,2.198407398,1
1014.314889,2.6,9.26E-05,2083.794154,6.129859593,2.207642903,0
771.1686692,0.6,1.53E-05,728.5860214,48.21664616,1.688146176,0
748.555211,0.666666667,0.0002497,595.8595768,76.87176838,1.998717176,0
907.6265923,0,-4.56E-05,375.0625636,6.59543483,1.989608562,0
777.3091096,0,4.18E-05,445.2799165,28.95976769,2.076977158,0
890.519878,0.133333333,9.35E-05,746.2996277,13.53334352,2.123047037,1
651.0126904,0.933333333,-0.000120363,888.2689283,62.26069819,2.113666119,0
879.2371712,0.133333333,-3.03E-06,687.51828,7.840267961,2.114041734,0
719.1927629,1.466666667,-0.00025303,2144.939437,100.6054951,2.199385683,1
775.6945317,0.066666667,-1.12E-05,567.3288719,92.53673076,2.067271293,1
940.2482583,0.6,7.94E-05,770.566371,6.859725095,2.171077094,1
707.272787,0,-4.87E-05,238.638954,44.98878864,2.12501128,0
698.3733604,0,-3.11E-06,615.2868773,28.73039524,2.086147544,0
760.2627376,0,-5.54E-05,393.2138847,25.99601328,2.121895584,1
693.7584046,0,5.69E-05,508.6953707,28.50620759,2.073879984,0
801.995686,0,5.76E-05,573.3543813,51.3072731,2.151026161,1
869.6838801,0.333333333,0.000125945,794.8583855,19.89552394,2.12388732,1
785.3677301,0,-7.54E-06,439.5760854,42.26816365,2.190981266,1
804.4574049,0.266666667,-5.48E-05,1243.73445,56.71624051,2.188772075,0
761.3730016,0.266666667,-1.71E-05,558.2085472,41.53555112,2.191021044,0
808.821997,0.866666667,1.09E-05,794.8994658,40.81167368,2.101902268,1
815.6607725,0,-0.000102973,908.2650269,22.32262976,2.147470425,1
900.8141244,2.8,-0.000348527,904.7876765,93.93017263,1.944865554,0
810.8020253,0.133333333,-1.96E-05,1393.243478,46.9216112,2.217732296,0
941.3119793,1.466666667,-0.000171044,1415.717422,19.54215523,2.17516417,1
887.2026948,0,-8.63E-07,445.9919802,9.48058177,2.119678132,0
809.4433727,0.4,-6.29E-05,1465.057298,51.50465271,2.172880225,0
696.7321243,1.066666667,4.59E-05,1878.204307,126.5730777,2.176566843,0
972.8138726,1.533333333,-0.000210246,1784.510701,9.717898212,2.18064497,1
767.3477432,0.2,3.25E-05,445.2715088,29.80679597,2.15663722,0
731.9483546,1.666666667,3.67E-05,2657.553505,122.1018722,2.19723792,1
758.2587433,0,-2.12E-05,280.9766949,33.82124308,2.154264776,1
721.7892308,1.733333333,7.55E-05,1437.578982,143.5867898,1.888044106,1
926.2420957,1.2,1.28E-05,635.9526196,10.00875542,1.624787494,0
711.9303114,0,-2.45E-05,456.8875939,25.15519713,2.010264031,0
891.257547,1.666666667,8.89E-05,2292.450061,34.11957052,2.190368879,1
766.5136769,3.066666667,7.19E-05,1824.274252,76.74007535,2.16780698,0
1038.544228,0.533333333,0.000154398,1403.35554,3.122634667,2.195877919,1
752.3031268,0.2,-5.38E-05,586.7860693,23.80520554,2.124423091,1
883.9684129,0.933333333,-4.51E-05,600.5440735,28.3769748,2.057081004,0
730.2253685,0.866666667,-7.75E-05,2339.119344,79.70823823,2.20189189,1
611.5892712,2.133333333,0.000219877,1530.56396,218.6874126,1.640229585,1
831.7534271,0,-7.13E-05,532.2997625,22.29392887,2.112804948,0
1033.452282,1.8,5.46E-05,1831.046771,3.433353082,2.202189517,1
743.439619,1.533333333,-8.51E-05,851.4667205,112.3688668,1.803283927,1
658.8727124,0.733333333,-4.29E-05,868.7144897,66.24974448,1.691780721,0
860.6710901,0,0.00018249,704.4859974,9.133469524,2.221457122,0
728.406454,0.133333333,-6.29E-05,472.3795148,52.43708284,1.502966606,0
752.3006805,0,-0.000131228,676.6280874,94.18784317,2.18021988,1
705.3296584,1.8,3.36E-05,1212.394415,129.7088143,1.955087108,0
973.0601292,3.066666667,-0.00014064,825.5145812,80.96915171,2.123619543,0
926.5856142,0.333333333,0.000125247,948.4155121,7.885884232,2.181022979,1
801.0304408,0,1.71E-05,295.6771974,13.61110925,1.91493393,0
850.7133131,0,2.45E-05,235.4267752,12.68105891,2.168351256,0
992.583025,1.333333333,3.20E-05,719.4702082,25.54316975,2.103526467,1
877.2353676,0.133333333,0.000137202,706.1206785,7.917401773,2.042601313,0
828.7393595,0.333333333,-3.71E-05,551.0319343,15.43631575,2.136313374,0
749.4666402,0.4,-0.000137713,1016.115023,24.8662671,2.158984485,0
1144.301549,0.266666667,-9.92E-05,925.5482438,0.321220017,2.216156496,1
705.6583473,2.066666667,-0.000144007,1270.993162,130.4903877,1.789706874,0
776.1038759,0.6,2.60E-05,814.5502669,33.90422457,2.079599882,1
792.4546663,0.333333333,1.58E-05,914.423211,26.25305734,2.16800133,0
1033.26814,1.133333333,-0.000216662,846.046917,3.696110568,2.223246692,1
940.1375939,1.066666667,8.04E-05,1128.467857,5.986298558,2.13868886,0
792.6908183,0,-0.000112235,742.6527069,21.23700341,2.145279194,1
857.1818668,0.466666667,-2.51E-05,730.3174719,32.62662201,2.157606242,0
696.9707124,0.866666667,7.30E-05,1932.931869,116.7446114,2.191036956,0
798.6838442,0,-1.12E-05,350.9750082,16.5918269,2.190376829,1
729.027154,0,0.000168209,363.2662195,30.44527782,1.938448618,0
803.1598533,0.6,-8.22E-05,1386.086328,51.8259235,2.161360443,0
872.6782272,0,-2.55E-05,264.6550917,14.66449255,2.072995827,1
780.7022186,0.6,-4.47E-06,1062.34457,23.72685417,2.161190545,0
842.404018,0.666666667,0.000252961,833.0495544,38.52708304,1.612792432,1
751.249934,0,-4.33E-05,407.0993634,28.40041275,2.183104588,0
732.3699806,1.066666667,0.000229751,2358.641583,99.04478016,2.215870995,1
778.5163471,0.466666667,2.34E-05,1413.567665,22.57831526,2.09428995,1
925.8123204,0.733333333,-8.19E-06,953.8739268,12.34982897,1.978875423,0
927.2566537,1.8,-0.000139259,1525.906246,23.81762929,2.17837991,1
903.9371853,4,0.000362438,1255.577323,91.59345233,1.881023123,0
789.8839968,0,-7.97E-06,566.2502579,13.50673491,2.180259233,0
718.0617123,0.066666667,-0.000185357,592.8087262,92.96229789,2.19086194,0
744.3545182,0,0.000101658,482.012349,38.14145672,2.206115216,0
964.1807552,1.2,-7.23E-05,1563.806591,13.83821233,2.126613803,1
976.9873041,0.2,9.93E-06,670.2491547,2.613998872,2.135026184,0
745.9130162,4,-0.000394278,1461.871846,227.4169611,2.131789194,1
1014.411862,0.733333333,6.76E-05,432.9648566,10.85322532,1.45999476,0
751.5285193,0,0.000176543,524.89003,24.72722933,2.127643753,0
866.1701512,0.2,-3.10E-05,840.2779483,5.483262376,2.203123194,0
841.3817678,2,-0.000327787,1187.893386,48.84934939,2.012857083,1
775.3375397,0.666666667,-4.96E-05,977.6795322,33.02716653,2.002518387,0
797.3098973,0.133333333,-2.73E-05,1001.329748,25.75571768,2.018411503,0
698.0722923,2.133333333,-9.78E-05,786.054893,227.7065315,2.078540014,0
810.2578022,0,-3.01E-05,465.3692116,32.69587167,2.161499473,0
699.2169267,1.066666667,9.74E-05,1933.973799,120.1915825,2.176778591,0
730.2406682,0,7.48E-05,363.5694441,31.55034187,1.931759465,0
786.2036912,0,4.87E-05,317.2574191,9.353645583,2.147432342,0
866.9569386,0.2,6.28E-05,701.2645794,5.516518943,2.20151395,0
883.7811166,0.666666667,-3.24E-05,895.4562158,14.48362099,2.119759623,1
945.6218675,0.466666667,-0.000245527,779.8321929,6.695974992,2.173919868,1
894.321136,2.066666667,-0.000183297,1090.431674,31.63467571,2.086498628,1
828.1248235,0.333333333,-6.36E-05,539.5982295,15.80648533,2.150636397,0
772.4305741,0.066666667,-9.15E-05,884.3246801,86.74945915,1.816681194,1
714.616154,0.933333333,1.24E-05,440.6520488,30.35933926,1.143085035,0
723.7868335,0,2.16E-05,654.5413563,67.34095661,2.105854468,0
758.7641921,1.866666667,-2.90E-05,2696.616052,110.7864162,2.222548543,1
959.051256,0.2,2.89E-06,512.9632165,2.640785762,2.160742768,1
734.1252034,3.066666667,-0.00019569,1608.906577,167.8426846,2.071420428,0
808.8868453,0.866666667,-4.56E-05,794.8660617,41.70346697,2.114284854,1
1067.866782,0.733333333,1.13E-05,1212.768421,0.893023192,2.189042002,1
907.8657026,2.666666667,-0.000109628,1586.273962,18.13042044,2.101334785,1
1265.390983,1.2,0.000111284,240.6705316,1.098456614,2.181771544,1
946.8941009,0.2,0.000310394,858.9514932,7.110571728,2.043726736,0
839.7421281,0.066666667,-9.70E-06,639.7231381,25.53987074,2.19097331,1
805.1369283,0.466666667,-2.90E-06,869.2593072,33.0585643,2.174522261,0
858.3716314,0,4.80E-05,629.8379386,44.8669655,2.168779111,1
1010.730041,4.133333333,-0.000231764,1537.290633,9.766526242,2.113857592,1
723.8829084,0,-1.13E-06,272.1398107,35.61913694,2.128637392,0
705.8497199,1.266666667,4.83E-05,1850.106554,142.5717062,2.096104393,0
838.0678648,0.133333333,-4.23E-05,916.9514493,9.098208842,2.189145229,1
905.1161772,0.4,-0.000183722,1025.668833,13.57045299,2.172599004,0
789.6107462,0.066666667,8.13E-05,948.2701866,27.2758066,2.128809324,0
896.7859266,0.6,-0.000203419,826.8001508,9.253342727,2.133928489,0
962.161531,1.266666667,8.97E-05,1697.012485,14.85602014,2.196773712,0
788.8490123,0,-5.62E-05,349.9994558,25.90377761,2.110578177,1
864.8880748,0.666666667,8.83E-05,1087.074769,28.94810225,2.034779033,0
767.3078898,0.133333333,-5.05E-05,896.4414589,41.52440098,1.586979091,1
733.6955596,0,0.000135918,418.5721156,26.0356521,2.191753248,0
819.6245463,0.533333333,-9.17E-05,1574.594677,40.45637767,2.188351452,0
1209.720585,0.533333333,7.59E-05,443.8924999,2.52582478,1.968670207,1
845.8010525,1.133333333,8.95E-05,827.0512234,41.36014049,1.710385478,1
958.3285558,0.2,4.53E-05,562.3904537,2.169888588,2.176449225,0
831.1558374,1.733333333,-8.83E-05,1827.716614,63.65936696,2.184423605,1
882.595593,0,4.56E-05,618.3470287,4.773372141,2.190750582,0
859.893897,0.4,-6.43E-06,818.4453135,22.42819731,2.023256695,1
1192.213428,1.2,0.000125,644.6131179,0.508728506,2.067053394,1
820.473978,3.2,-0.00014119,1068.693524,114.7853811,1.79232534,0
806.246135,0.133333333,-3.41E-05,769.7960577,23.72266542,2.193594084,0
1107.357014,0,-6.99E-05,511.5304085,0.079835973,2.10554765,1
879.5270118,1.6,-4.31E-05,1099.716764,45.35579678,2.15656804,1
891.7374946,1.6,8.43E-05,991.7064215,28.81589866,2.147996122,0
869.9574926,0.333333333,7.29E-05,711.0931434,20.12607756,2.144458719,1
978.893032,0.933333333,-9.44E-05,1395.974125,7.79894954,2.139232622,0
798.8809276,0,-8.07E-06,344.5727542,17.20207363,2.188287977,1
918.1575334,1.666666667,-3.55E-05,1200.541075,31.30656914,2.036195483,0
949.754841,0.733333333,0.000188014,640.3724729,40.43405737,1.254652233,0
570.8526401,0.133333333,-2.37E-05,651.4849593,36.32008989,2.030290991,1
764.154046,0,-3.41E-05,421.6749863,24.66852271,2.148613596,1
717.7007705,1.2,0.000298223,673.6405125,107.509367,2.068586726,0
810.8902845,0.6,-8.96E-05,1957.057432,21.61771262,2.118930203,1
1073.438729,0.6,0.000738368,145.8269077,8.629679899,0.906745594,0
1026.57592,1.733333333,-4.37E-05,1668.186028,4.368938298,2.19712585,0
917.2623839,1.533333333,-4.84E-05,1075.197163,11.99009694,2.095749921,1
961.3810489,1.2,-1.98E-05,1540.668867,14.66933969,2.13522179,1
1184.493772,2.933333333,0.000143301,592.9247344,44.14110244,2.021482322,1
814.5670131,0.533333333,6.75E-06,1737.794216,55.35133378,2.214053858,0
803.3080419,1.266666667,-0.000144158,712.2262787,50.46453645,1.810560863,1
1004.731277,2.533333333,-1.03E-05,1993.273986,6.914097104,2.127606418,1
1148.796215,2.866666667,0.000377212,1732.035868,1.472208238,1.949516377,1
917.893874,2,0.000202419,745.288662,76.12373874,1.921814969,1
927.7302226,0.933333333,-0.000248785,1185.921525,11.38980505,2.150552351,1
806.5960306,0.2,6.63E-05,1260.481487,48.68333764,2.199417774,0
829.9457793,1.266666667,9.65E-05,1570.827636,46.16735972,2.178741346,1
1069.071766,0.733333333,2.18E-05,1169.49307,0.955394741,2.193833403,1
858.8866722,0.733333333,2.15E-05,735.5447865,41.89723184,2.068382615,0
834.4276181,1.266666667,1.88E-05,1579.955733,37.51750171,2.124929359,1
911.990079,0.266666667,-9.69E-05,1331.30375,13.45228228,2.172591193,1
754.8350156,0,3.69E-05,468.5047134,21.44495303,2.149269604,0
782.0407823,0,0.000137314,745.6431715,15.09266681,2.208678854,0
803.8857735,0.4,7.11E-05,708.8074677,51.20930661,2.194152583,0
804.6715289,1.6,0.000377117,938.721033,100.4443236,1.726809092,1
771.3931659,0.266666667,5.09E-05,509.2299285,36.25325548,2.214909049,0
782.4796028,0.666666667,-0.00025328,751.6646453,52.38779288,1.654759117,0
774.8558761,0.6,-3.98E-05,743.6426691,46.67403841,1.621104547,0
853.9003452,0.533333333,-5.21E-05,778.7031222,26.59798541,2.145203196,1
888.0587565,2.066666667,2.56E-05,1189.782202,31.0106029,2.107521696,1
852.6564316,0.333333333,-4.24E-05,625.9218588,33.69450118,1.898689669,1
1110.117463,1.066666667,4.18E-05,1071.950632,0.489972685,2.185934317,1
762.6569658,0,-3.97E-05,421.1359186,20.40763512,2.180290716,1
1042.902756,2.466666667,-0.000139143,1860.548335,3.507267533,2.187391824,1
977.9478424,1.733333333,-3.67E-05,2048.585774,13.09573122,2.207853244,0
701.4146653,1.466666667,-4.14E-05,1205.035056,117.3758731,1.959274573,0
758.161318,4.933333333,6.79E-05,3075.609369,143.2426789,2.20903521,1
879.8820705,1,-0.00018114,1009.865525,17.84792283,2.156168427,0
800.5452854,1.466666667,-0.000199664,1306.610787,46.60076873,2.062460456,0
830.0337286,1.866666667,0.000207682,770.7884137,84.42377969,1.85975979,1
1318.598181,1,-6.87E-05,147.6531866,3.600440031,1.194265423,0
757.538765,0,-7.52E-05,358.3447368,25.03721567,2.115597248,1
885.2313477,0,2.30E-05,630.958738,14.20946329,2.178301354,1
812.2803144,0,3.24E-05,458.6614976,24.62787069,2.191856755,1
807.9782724,0,6.61E-05,1324.297472,56.03580887,2.200951326,0
1020.247862,2.733333333,-3.86E-05,2127.358701,5.984328297,2.199040769,0
1015.957224,2.266666667,0.000285732,966.7199331,23.39358242,2.110453389,1
853.9859534,0.266666667,0.000126419,614.6610817,25.32308358,2.189899901,1
829.0904925,0,0.000116431,320.2997284,19.12190867,1.88981444,0
731.0272461,0,-4.04E-05,424.5877271,25.94321627,2.171155084,0
724.306085,0,3.59E-05,360.9107942,29.15395198,2.140547934,0
1169.379324,1.666666667,-0.000149365,1064.284284,1.029539377,1.97472059,1
787.3409772,1.133333333,0.000104513,1246.63496,31.61994355,2.15803722,0
774.4798053,0.066666667,4.50E-05,369.4058593,29.86485976,2.066870676,1
1111.804155,0.666666667,-2.74E-05,1062.541121,0.439333657,2.192892414,1
747.3733852,0.266666667,9.51E-05,502.1251928,43.71231072,2.155377358,0
924.050049,0.133333333,-0.000169983,534.2665932,3.717288636,2.211038024,1
734.5609616,0,-5.42E-05,331.4579594,34.40464905,1.944324571,0
823.1500206,1.466666667,0.000118735,1758.843193,44.29961173,2.110468069,1
890.4083124,1.733333333,0.000115936,1239.232515,40.66853114,2.072635315,1
829.0642461,0.266666667,-2.31E-05,1613.197581,32.99946586,2.215993343,1
796.4703996,0.466666667,-1.82E-05,938.8586512,27.00871747,2.188891151,0
633.1710752,2.4,0.000109444,1496.752045,171.9797472,2.043664942,0
769.0164782,0.666666667,-2.68E-06,1079.106674,29.64641846,2.020327983,0
1008.535749,1.333333333,-1.55E-05,1154.513765,3.889587921,2.148072333,1
1062.081433,2.666666667,-0.000461245,912.4067099,34.08878923,1.927410327,0
922.9076123,0.2,-0.000144715,510.6003853,6.89597085,2.140381535,1
1150.508293,3.466666667,0.000257678,1966.083425,1.101172132,2.037511582,1
924.4533378,0.133333333,-5.31E-05,567.146634,3.843889867,2.196309719,1
753.8512296,3.2,0.000188758,2985.646399,123.1469317,2.226967413,1
753.3083503,4.666666667,-2.72E-05,3250.614457,154.1147916,2.208071721,1
933.3484751,1.133333333,-8.80E-05,948.6558179,14.6136416,2.032841476,1
993.3753558,1.333333333,3.40E-05,719.4698003,24.21077559,2.098088866,1
732.4664326,0,0.000124762,384.9348395,25.93532349,2.209116218,0
822.4476921,0.4,-0.000132676,1528.005184,33.91916809,2.207028315,0
678.6049939,1.6,0.000438395,854.8447063,215.7529964,2.08639114,0
575.2642718,0.133333333,-1.49E-05,617.0934867,38.80009692,1.984276115,1
813.5015245,0.6,-7.08E-05,710.8802692,23.34464583,2.026052335,1
879.5783342,0.466666667,7.73E-05,632.1425096,14.28599816,2.067411898,0
1318.321208,1,-2.08E-05,125.8748753,3.340549893,1.169020437,0
949.204877,0,9.12E-06,599.2568875,2.548880953,2.160364631,0
838.4119305,0,-7.05E-05,281.3029529,14.77075986,1.940502515,0
869.8667693,0.333333333,1.78E-05,732.2834339,21.28305451,2.14215284,1
698.4017601,2.466666667,-9.56E-05,819.5023423,231.698998,2.084951915,0
763.2642118,0.4,-3.55E-05,831.3855574,49.80256791,2.018337866,0
806.854213,0,2.29E-05,1017.047621,16.90410791,2.19676571,1
879.9910673,0.933333333,8.14E-05,833.6934262,17.19209825,2.029986182,1
882.1311105,0.333333333,0.000107567,695.6257997,7.858777191,1.984140257,0
839.7758953,0.066666667,2.13E-06,650.5619741,24.72227973,2.190798305,1
985.3233199,0.933333333,0.000132874,1418.962342,9.053122282,2.130133446,1
772.8775593,0.6,9.27E-05,777.3966492,31.08901377,2.039403524,1
798.9294779,0.666666667,-4.86E-05,1467.370607,54.63745729,2.193019954,0
778.1241407,0,-0.000104835,545.3930901,48.2973795,2.165074525,0
1171.331037,0.866666667,-0.00025359,485.3430255,4.461985101,1.958650064,1
1072.105008,0.466666667,-5.32E-05,652.7759957,1.398065285,2.040244776,1
767.9670087,0.133333333,-2.06E-05,887.6912585,41.25783968,1.60073231,1
745.1288216,1.266666667,-2.05E-05,1450.905396,60.23565151,1.93279133,0
759.1203783,0.066666667,-8.88E-06,390.6283672,25.68545007,2.100963912,1
730.6223439,0,-0.00011387,301.3274977,40.98438232,2.167954683,0
795.8584275,0,5.02E-05,1242.657193,17.64371727,2.078490249,1
812.1712455,0.866666667,-0.000101872,815.2585842,41.70842434,2.061083185,1
766.2561042,0,6.01E-05,403.9152531,19.49663621,2.133049698,1
742.0714258,0.066666667,-1.45E-05,550.3712102,54.82439835,2.188303845,0
930.5500848,1.066666667,8.59E-05,1016.964751,8.531085532,2.019985964,0
804.557159,0.266666667,0.000129872,1244.349857,59.65168121,2.18985222,0
814.5123227,0,1.58E-05,685.3137089,16.8763634,2.1790243,1
837.9659413,0.266666667,1.28E-05,583.5317863,29.49376269,2.116320538,1
821.0019108,3.133333333,-0.000246873,736.1649834,111.0059648,1.5079729,0
796.6005815,0.133333333,0.000129055,1045.756738,24.67544793,2.024394217,0
696.360367,1.266666667,-0.000289468,685.3189312,114.1941577,1.636197035,0
549.4410441,1,7.80E-05,695.1592223,263.4671726,1.552016889,1
922.3604651,0,-5.17E-05,428.0561624,4.043220323,2.19958627,0
842.3357809,4,0.000563452,1727.109,109.0796676,1.801207565,0
693.6569524,0,8.40E-05,565.5240247,29.62579833,2.074467497,0
665.6523448,0.2,9.30E-06,408.6772889,37.90476786,1.896062061,0
723.285474,1.933333333,-2.97E-05,663.1713304,120.5571229,1.129639734,0
900.3387465,0.2,-8.56E-05,539.6424802,9.025708085,2.121353746,1
865.207194,0,7.56E-06,568.6633431,45.71674466,2.118219818,1
728.3867406,0,-3.07E-05,280.9645785,33.60726821,2.149406963,0
718.9078919,0,-7.13E-05,421.4889824,30.45619972,2.173841662,0
831.9309848,1.133333333,8.95E-05,677.9163757,37.08411004,1.638909549,1
830.0471215,0.933333333,0.000245133,745.816254,24.46438494,1.870545684,0
816.5675548,0,-9.79E-05,374.2242219,19.51601412,2.190480194,1
853.5831224,0.466666667,-3.85E-05,940.2371981,25.08408849,2.016799414,0
1028.607803,1.2,0.000142633,1812.36116,5.827498311,2.126942077,0
775.7838671,0.133333333,-3.56E-05,626.6287803,36.57552135,2.176511953,0
875.5582187,0.133333333,8.52E-05,585.4116397,12.84896622,2.057818878,0
975.4841187,2.066666667,0.000130873,1756.43875,18.4505679,2.159955786,1
926.7467764,0.133333333,8.70E-05,596.6152924,6.374569618,2.197157868,1
884.374779,0.333333333,-0.000124421,636.0267804,15.16594187,2.122467431,1
905.9864423,1,-7.33E-05,766.4518446,7.508645178,2.164136966,0
783.8736099,0,-0.000247852,309.283903,26.30229506,2.0139695,0
814.5531375,0.066666667,-2.45E-05,950.5435634,39.2273763,2.194304229,0
626.2995223,1.466666667,-5.17E-05,788.3519196,244.5972891,1.550233808,1
1000.612419,1.4,4.54E-05,1021.197738,9.30573077,2.000510757,0
906.8723733,0.4,-0.000205907,1098.923244,11.92797502,2.181511453,0
579.6485593,0,-3.48E-05,204.5091283,20.62572263,2.081887047,0
732.7639009,0.8,0.000148828,585.631059,87.25756376,2.054121065,0
1047.198013,2.666666667,-1.06E-05,1854.280377,3.270287714,2.193482422,1
651.1497986,1.6,0.000300702,892.1627868,236.6897235,2.158121899,0
805.1850892,0,-7.47E-05,587.2570872,55.77364445,2.160387778,1
730.2832846,0,-3.38E-05,371.6548947,30.17351266,1.943305583,0
884.2913626,0,-5.09E-05,540.6916466,15.96050399,2.138749264,1
668.6610455,0.933333333,2.98E-05,1691.738304,116.7814325,2.040634865,0
887.7899271,1,8.29E-05,1365.052545,14.11562529,2.016953153,1
839.9911766,2,-0.000387935,1190.437426,49.89375589,2.00729362,1
1017.556606,2.333333333,-0.000120954,1750.206734,4.243552157,2.205485422,0
967.6978907,1.066666667,-0.00016979,790.057193,7.36921231,2.208152651,1
1034.404902,0.533333333,0.000110028,1450.551661,3.413465137,2.188954665,1
791.8387064,0.333333333,-3.28E-05,889.0629969,28.99112328,2.171576337,0
755.4252313,0.666666667,4.35E-06,607.4622124,54.34366402,1.919841522,1
747.8797193,0.6,5.70E-05,991.5435578,38.61816687,2.125719055,0
1064.102458,2.133333333,0.00010522,724.8562444,7.145454817,2.134386968,1
715.8830735,0.666666667,6.23E-05,657.9819401,82.96629586,1.891747149,0
813.1848781,0.933333333,2.75E-05,748.7509625,23.69218604,1.886247572,0
1000.406462,1.133333333,4.39E-06,1688.661203,8.797207037,2.18195286,0
753.4491074,0.2,-1.62E-05,653.4098131,41.01773001,2.175493113,0
855.5720561,0.733333333,-0.000187065,604.5332701,11.87928376,1.75492267,0
679.561098,0.933333333,9.47E-06,1734.386512,111.6449927,2.075494704,0
926.157273,0,9.47E-05,397.7209525,5.74988119,2.098248374,1
1007.714642,2.333333333,7.51E-05,1914.921779,9.404389383,2.165314868,1
666.2881176,1,-6.21E-05,1674.352822,124.8819157,2.001787274,0
645.665589,1.266666667,-0.000234279,884.0869714,143.5683561,1.839498818,0
729.3138495,0.333333333,0.000156238,422.8714487,22.81198174,1.657265898,0
924.6717356,0.133333333,3.44E-05,561.211519,3.950255792,2.20665651,1
880.4021561,0,2.20E-05,526.3077904,5.869096478,2.204549538,0
721.6700224,2.2,1.54E-05,2275.011937,144.9342443,2.163107438,0
835.2138456,2,0.000110506,1055.166746,28.87958334,1.997175823,0
823.9877105,1.266666667,1.64E-05,834.5527431,45.1501485,1.680777956,1
804.8984012,0.133333333,-6.53E-05,1146.982614,25.60463363,1.962776518,0
714.4475444,0,3.02E-07,274.4108086,42.69915375,2.134815574,0
685.1116135,1.866666667,0.000339538,1514.690779,159.0839833,1.949491382,1
710.6699564,0.6,0.000260483,453.2572356,19.6003223,0.969521696,0
795.2226727,0.466666667,-6.24E-05,922.08331,27.95474679,2.189725084,0
580.2515991,2.266666667,-0.000183823,1271.10177,241.340018,1.813769093,0
765.039525,1.066666667,-6.45E-05,1217.003379,31.2230189,2.087975966,0
871.5900773,1.6,-0.000268052,1067.680396,58.14991397,2.109895706,1
709.6430634,1.333333333,0.000151007,2080.224214,118.2166883,2.144246113,0
775.4498952,0,4.94E-05,735.5973357,17.75110951,2.193155482,0
1071.980834,1.866666667,5.35E-05,2157.24122,1.936726949,2.198014749,0
985.3076397,2.333333333,-0.000410814,1130.071985,8.201347782,2.118449158,1
718.8344035,0.666666667,7.72E-05,640.1527515,86.40868305,1.877720031,0
821.3236243,2.133333333,-1.64E-05,762.0254214,78.37645231,1.910987845,1
773.5177035,0.066666667,9.32E-05,382.6514357,28.61769713,2.177610329,0
927.9577435,0.733333333,1.31E-05,1187.418823,11.73781027,2.137805878,1
828.5176472,0.333333333,9.16E-05,600.6043466,15.90050181,2.170507948,0
772.9674679,0,-1.43E-05,397.4325105,24.61381065,2.187296704,1
1096.890476,0.666666667,2.05E-05,1085.369217,3.03317961,2.068720477,1
810.9694454,0.4,-6.41E-05,676.9471225,16.65714067,2.148034226,1
1017.251213,0.933333333,0.000126967,1574.748537,3.916402706,2.201264749,1
760.1223094,1.733333333,-0.000142753,3010.706124,96.73362371,2.224282493,1
752.6039009,0.133333333,8.22E-05,549.8752807,106.8877345,2.202430902,1
774.8170197,0,-0.000154026,321.8175389,27.76681344,2.147660863,0
756.7005109,0.2,0.000201208,668.3221653,41.282384,2.16340922,0
566.6111429,1.466666667,-0.000111514,838.2579099,296.3873497,1.598050912,1
780.8209339,0,8.82E-05,314.1192846,11.660411,2.217969289,0
838.5478348,0.133333333,6.31E-05,1141.87457,13.19579033,2.190583569,1
711.105915,0.133333333,-0.00035746,419.5594113,23.87033703,1.085334585,0
939.5809471,1.066666667,-0.000163114,1282.280521,6.044364053,2.177037454,0
944.5674744,1.266666667,-0.000115827,1260.315756,8.289182566,2.036965839,0
900.8116357,0.666666667,-1.17E-05,775.9803815,11.7660022,2.13846238,0
1064.889169,0.6,0.000113375,1010.534981,2.43011989,2.185245908,1
862.6576747,0,7.52E-05,705.4590257,9.014007977,2.116556828,1
777.8554295,0,-6.02E-05,209.8666384,21.08222765,1.957162907,0
723.6896368,2.266666667,3.54E-05,2379.506437,109.2917221,2.191785095,0
994.9483179,2.133333333,0.000256809,761.731393,18.23347631,2.086212019,1
812.4711998,0,-0.000100305,366.5097775,21.57415426,2.205864866,1
1030.756353,1.933333333,4.60E-05,2230.585303,3.654591337,2.220620899,0
1241.644927,2.066666667,8.21E-05,307.5005419,0.909489416,2.061104144,1
924.7041143,0,-0.00011755,803.8921616,2.648775894,2.210981209,1
1069.133956,2.133333333,-8.80E-05,1718.721155,1.00205971,2.188010321,1
886.1519325,0.666666667,-3.83E-05,880.8639256,11.29254546,2.064196981,1
692.2449308,0,1.80E-05,602.4050185,29.0982457,2.07003077,0
864.0144668,0.266666667,-9.17E-05,783.5765549,15.22679796,2.021442032,1
774.8694552,0.133333333,2.41E-05,623.0999779,34.74974185,2.174115411,0
730.8721843,0.066666667,-4.22E-05,615.5648948,74.88304044,2.206640348,0
867.5355207,0.333333333,2.15E-05,737.9696888,19.97560766,2.15507799,1
1022.453391,3.266666667,-0.00019578,2568.406794,3.651910563,2.162952714,0
792.506517,0.266666667,5.11E-05,373.7225048,22.5294277,2.183791524,1
882.9813697,2.066666667,-0.000541945,1080.192973,26.39433753,2.038351244,1
731.5902113,0,0.000144198,373.4744821,29.96115538,2.171841661,0
828.1971505,1.733333333,-2.30E-05,1139.233795,57.39900522,2.050236436,0
1006.032546,1.2,-3.35E-05,1578.169778,4.837753601,2.188248307,1
794.6773726,0.266666667,0.000306283,447.1514374,43.88569387,2.08809798,0
697.7542032,0.466666667,0.000258385,651.8075181,43.66547681,1.941642639,0
677.1656144,0.6,0.000191812,1689.159718,112.7093466,2.123931957,0
984.0108204,3.8,-0.000195588,1675.91276,16.02673523,2.181732132,1
927.550738,0.6,2.85E-05,1008.60585,8.693677961,2.133733135,0
1117.859631,0.666666667,0.000563291,329.1928882,2.999248423,2.165850032,1
714.3785943,0,-5.18E-05,294.4663234,46.33944957,2.125435885,0
1075.776923,3.6,-7.97E-05,1407.903065,5.638390814,2.122177753,1
1121.276866,3.266666667,0.00027289,1092.047189,37.22641649,1.879466339,0
878.1630193,1.6,0.000162823,1030.588444,39.56392521,2.149971857,1
724.1889496,0.933333333,6.40E-06,2364.581198,111.0430921,2.196901748,1
765.3296997,0.666666667,0.000301208,950.2971745,42.27809826,1.557098246,1
930.5692096,0,-8.88E-05,780.9183214,2.548586277,2.213248203,1
994.709862,2.133333333,-0.000100283,1056.734661,28.44947595,1.95675999,1
879.6125596,0.133333333,4.01E-05,594.220708,14.39765394,2.022779186,0
726.781264,1.8,4.02E-05,2384.939917,135.2746137,2.209967195,1
708.2399819,1.333333333,0.000115273,1905.495965,143.2676979,2.109367661,0
820.1122108,0.4,-3.23E-05,1404.175656,36.46866985,2.206971727,0
902.7456303,0.066666667,-9.04E-05,360.0939848,10.83786021,2.161190545,1
832.2168521,4,-0.000479211,1199.625477,180.1830562,2.031104269,1
884.4669699,0.2,-0.000174609,552.2217249,12.43000063,2.061285811,1
775.6677934,1.066666667,0.000177792,658.0478646,100.6665661,1.980124602,1
1143.17658,0.266666667,-0.000264693,916.9622286,0.296632309,2.207877517,1
898.7207096,0,8.50E-05,456.1462864,10.19949355,2.138477477,1
1009.844712,0.2,-0.000185811,770.0092607,2.59595585,2.156521923,1
929.9962762,1.733333333,-0.000162725,940.0818253,16.39991141,1.889520147,0
940.5891,0.666666667,0.000211353,1065.551236,7.299288041,2.154640614,1
995.3353911,1.333333333,-3.89E-05,1741.170066,9.956875061,2.186615278,1
802.9773538,0.066666667,-4.69E-05,566.6247985,64.20812064,2.183215098,1
677.6107137,0.266666667,-5.51E-06,680.8647823,57.22370748,1.944591917,0
726.756073,0,3.34E-05,337.7371568,29.44694725,2.172684924,0
804.362964,0.466666667,4.96E-05,998.4944098,35.51824066,2.167364001,0
1106.65033,2,-4.55E-05,580.6886095,38.01646949,2.049745872,1
783.6475304,2.466666667,0.000275187,1067.102884,116.5327578,1.845529055,0
775.0752738,0.066666667,7.90E-05,374.4927006,30.09389597,2.071815811,1
731.1809214,0,1.58E-05,287.2242322,42.82967926,2.157290822,0
874.6615559,0,0.000100385,537.7817457,16.12113445,1.996645098,0
816.0616257,1.333333333,0.000114685,1163.583888,37.37202801,2.172856787,0
719.626306,0.666666667,2.91E-05,705.4554598,89.68270011,1.869304964,0
824.679276,3,-9.07E-05,1951.400514,93.2215124,2.159709017,1
887.7829088,2.066666667,4.21E-05,1299.474225,42.12653802,2.075140376,1
872.6213873,0.466666667,1.14E-05,562.3400524,23.43095366,2.185934317,1
752.7440272,0.4,3.12E-06,988.9674029,28.78059271,2.112106252,0
708.5985252,1.933333333,0.000282673,654.82925,97.63105172,1.487237991,0
879.8040606,0.133333333,0.000110715,642.9523907,15.1494227,2.164772241,1
798.9649551,1.333333333,-2.11E-05,1079.010204,40.81234283,2.160742768,0
797.1759412,1.466666667,-7.86E-05,1337.759709,46.50110911,2.090699696,0
784.4516673,0.266666667,2.62E-06,391.7360843,34.42531209,2.114144869,1
817.3237549,0,0.000124087,380.098033,19.79650397,2.202575761,1
872.5221846,0.066666667,-5.83E-06,547.2247604,23.33131075,2.133620449,1
772.7913184,0.6,6.11E-05,747.7677165,26.50157333,2.035827558,1
707.3617418,0,-1.23E-05,413.0498999,24.36828962,1.952520341,0
817.7433503,0,1.24E-05,1164.097263,42.85792966,2.18987606,0
796.756093,0,-7.24E-05,302.9242177,13.62888304,1.849439465,0
974.9393386,2.666666667,-4.52E-05,1098.703233,9.579378102,2.079393511,1
563.8343706,0,4.10E-06,524.392223,34.81567364,2.003137945,1
814.5207458,0.533333333,-5.32E-06,1718.039387,56.1804771,2.214444712,0
726.6624512,0,-4.21E-05,349.1340697,28.76727881,2.172216357,0
1155.730885,2.4,0.000179979,502.084871,2.129684896,1.965947681,1
725.1224261,0,-5.45E-05,374.144778,31.21541099,2.169985867,0
789.893238,0,-0.000151589,212.7042483,21.32579803,2.01823746,0
752.0440288,0.066666667,-0.00012262,915.3979059,93.32819693,2.03103647,1
716.0777729,1.4,0.000364029,821.1443583,199.9871945,1.938720579,0
797.9155633,0,2.27E-05,339.2083755,12.2768874,1.877621165,0
605.6126905,0.2,-3.08E-05,381.8738834,27.21155994,1.486982195,0
836.0395093,1.933333333,-2.78E-05,754.9774136,85.89185079,1.885039956,1
720.8362682,0,-1.18E-05,313.7527151,39.46636567,2.13016339,0
1002.60984,2.266666667,-0.000103913,1133.421447,7.850442218,2.133139795,1
1014.079986,1.2,0.000277749,1789.819352,5.713999998,2.162364979,0
781.023144,0.533333333,-0.000106113,659.1100879,45.85863234,1.585336655,0
850.4003789,0.266666667,3.39E-05,640.1571505,24.03009144,2.193099674,1
745.2369533,3.266666667,-1.81E-05,1818.456977,140.1960037,2.017989835,0
892.2682332,0.733333333,0.000133375,810.7559855,23.73981182,2.166734843,1
709.1225955,1.333333333,-2.47E-05,542.6922164,94.26320566,1.219390131,0
686.6538204,0.266666667,-3.49E-05,334.5583089,19.58263108,0.854767091,0
824.1018263,2.133333333,-0.000184084,850.0174801,84.41471011,1.921377439,1
844.1543866,1.866666667,4.68E-05,1039.477023,25.06015802,1.976067253,0
716.4096491,0,-7.24E-05,297.8241627,39.70587601,2.091902221,0
855.2656176,1.533333333,1.59E-05,1153.717242,51.28944165,1.833538114,1
832.0542265,0,0.000155781,873.201771,13.41790336,2.187653449,1
800.4249253,0.733333333,-0.00030198,872.351011,36.30133634,2.124661303,1
871.8743825,1.6,-7.55E-05,980.1658245,40.58153071,1.951856188,1
856.0460024,0.666666667,-2.54E-05,713.6823868,45.12653532,2.035691324,0
1041.519192,2.8,-8.89E-06,2082.741344,2.648141483,2.178144261,0
729.1144316,0,5.47E-05,405.5820018,29.89177416,1.940589218,0
951.8249517,0.2,5.96E-05,568.7027072,2.608831869,2.177869407,0
760.8861572,0,-0.000111379,538.2809252,22.13957887,2.127875265,0
892.5388026,0,0.000134793,451.7564199,10.48986833,2.124162611,1
962.8865455,0.6,0.000358431,424.3662331,12.46986048,1.164244759,0
742.3839123,0,4.69E-05,437.8591372,44.79177505,2.178702053,0
778.685719,0,-2.40E-05,736.9683627,82.33452398,2.186559834,1
788.6601046,0,3.08E-05,175.9364404,20.45903047,2.074559549,0
700.4731558,1.066666667,9.59E-05,1881.86592,132.675614,2.190186031,0
923.9376955,0,0.000100005,371.7309339,5.819313414,2.106607301,1
715.9532631,0.133333333,-6.62E-06,391.984801,32.98184732,2.20758628,0
767.0990879,0.066666667,8.21E-05,402.2042534,28.70285,2.09749456,1
843.6768419,4.333333333,2.13E-05,1278.473501,179.6826696,2.085617568,1
717.4649089,2.133333333,9.07E-05,2205.159693,135.944115,2.15525453,0
1008.722906,2.733333333,4.94E-05,1983.599533,6.276718729,2.211346506,0
798.6260076,0.6,-5.17E-05,898.0920025,35.22584453,2.194503799,0
784.0330793,0,-8.52E-05,678.8715434,16.73632454,2.173794741,0
778.3177576,0,-4.31E-05,741.6578491,23.07121389,2.189526465,1
963.0498757,0,-0.000109623,466.4567567,1.759826756,2.106439144,0
825.8768838,1.066666667,2.66E-05,1077.144144,21.00485827,2.139021124,1
977.8557151,0.933333333,-0.000160348,1346.334158,7.737349812,2.144170193,0
717.2544491,0.666666667,-9.94E-06,640.8768796,97.92143637,1.86644851,0
798.5606966,1.266666667,-7.95E-05,1233.598093,45.99217649,2.083164719,0
731.5825198,0.933333333,0.000310307,620.8620458,90.67689469,2.060810752,0
568.4561455,1.466666667,-7.31E-05,785.2369773,288.475275,1.647239309,1
672.8872501,0.533333333,-7.24E-05,1050.741395,35.72667872,2.055648578,0
696.9253639,1.066666667,8.03E-05,1891.10136,113.8372286,2.17604159,0
1036.868622,2.733333333,6.02E-05,2032.042856,3.536832057,2.126270721,1
921.3017299,0.466666667,-0.000129667,689.5049967,7.842272157,2.092709516,0
769.2642852,0.333333333,-1.36E-05,615.9737836,19.0152681,1.830038558,0
752.8166139,0.4,-0.000230401,947.2784975,20.41023488,2.182063242,0
1090.855588,2.666666667,-0.000377355,1028.575568,40.83710781,1.945282372,0
714.5006178,1.333333333,4.52E-05,491.464897,53.96117557,1.162923484,0
939.0285627,1.266666667,-8.80E-06,1101.730673,11.67291438,1.825286588,1
776.7709548,1.2,0.000669838,607.0306145,39.8215994,0.483252855,0
841.2140831,0,8.85E-05,915.2690995,10.07488809,2.204065804,1
687.2647571,0.266666667,-7.12E-05,314.0120851,20.90104316,0.828959007,0
909.2910004,0.733333333,-4.39E-06,1068.310693,14.60631131,2.080660875,0
780.5866202,0,4.91E-05,906.3333247,14.47495785,2.15609928,0
829.6977322,2.533333333,0.000157117,1031.791193,95.48802875,1.985985628,1
806.6940027,0.066666667,-4.25E-05,622.1234153,60.28110486,2.145666875,1
1058.997132,2.6,-6.55E-05,715.3641397,6.523349295,2.131406855,1
934.2129189,0,-5.76E-05,580.3002524,7.696725382,2.172622436,0
806.3361033,0,-0.000114546,1199.976314,13.53605004,2.203058775,1
976.4503182,1.8,0.000124706,1697.27433,10.35673755,2.173638354,1
1141.731473,3,-8.88E-05,1874.905431,1.529350452,2.026106304,1
630.2596431,2.333333333,-8.53E-05,1426.655425,168.7117269,1.943106877,0
858.8745573,0.733333333,-3.84E-05,722.7533996,44.7232161,2.063314337,0
810.7149357,2.066666667,0.000678455,1355.878196,75.03500174,1.262810609,0
1003.533315,2.266666667,8.69E-06,1810.963117,9.063603967,2.168615726,1
1208.834257,0.533333333,-0.000154247,483.3054017,2.310998391,1.965103169,1
746.6133926,2.466666667,0.000186371,2660.771894,146.4791028,2.225755836,1
972.9021178,1.6,0.000294727,746.5515556,39.04168412,2.017086858,1
919.8633143,0.8,1.46E-05,1357.467125,16.76874607,2.162782545,1
791.3062151,0.2,-5.51E-06,375.8839558,23.74530945,2.183128268,1
896.3084789,0,-7.25E-05,519.3840972,8.256005178,2.116756241,0
936.7955491,0.733333333,-5.65E-05,1089.693299,5.637690755,2.138032209,0
791.8815089,0.4,-0.000214639,785.3980389,57.19239132,2.203815966,0
1101.606114,0,1.13E-05,460.6363713,0.075797373,2.103599363,1
1001.017555,2.133333333,-0.000204213,1149.8518,7.536703598,2.126942077,1
938.0672323,0,-4.70E-05,688.8769238,2.02974356,2.178654904,1
822.9861201,1.933333333,0.000312113,777.4335369,80.78029594,1.789595035,1
1204.441953,1.6,-1.32E-05,534.2216979,2.898744958,2.120144946,1
949.7311482,0.6,-0.000180423,1248.004856,14.74141141,2.122266876,1
888.4341154,0.333333333,-7.05E-06,651.7412549,13.05340095,2.15256377,1
842.4523459,1.133333333,5.11E-05,732.5086668,32.08500701,1.679002757,1
564.5494554,1.4,0.00041111,955.0966491,269.2047691,1.653350067,1
783.9492467,0.6,-5.37E-05,1640.463681,23.54669121,2.1050876,1
941.1570299,2.466666667,-5.29E-05,1107.107535,26.86055034,2.0457956,1
716.4693973,1.533333333,1.90E-05,2069.749944,100.6131679,2.194639529,1
703.0769948,0.8,-2.20E-06,2052.18792,110.8966095,2.123366708,0
935.4204565,0,0.000192607,400.6676814,4.739300667,2.061404611,1
727.410614,1.6,-6.76E-05,2499.491441,139.2373259,2.205897166,1
733.7885622,1.666666667,-0.000310254,1275.675793,69.90540876,1.890833361,0
696.0570475,2.466666667,-4.87E-05,871.8086321,232.3910896,2.053482978,0
857.3942269,0.666666667,0.000153369,1016.187417,33.26176202,2.010948209,0
1125.260925,0.8,-5.20E-05,327.5190296,2.79619803,2.142304379,1
1084.642811,1.533333333,0.000152124,1965.418368,1.574800149,2.182733682,0
781.9451995,0,-7.05E-05,502.196386,53.59265937,2.219940959,0
764.0867187,0.2,7.65E-05,734.2044843,20.84317981,2.121969831,1
901.7619935,0,6.10E-05,660.005035,2.302144223,2.20253552,0
804.6032631,0,-9.83E-05,589.4046037,48.902176,2.134973527,1
844.6537788,0.133333333,2.36E-05,953.9342919,8.651046204,2.202269972,1
672.2690781,0.4,0.00025763,1606.726015,114.2880947,2.13109959,0
834.1377833,0.2,4.97E-05,520.0994456,25.48262977,2.170679437,1
790.1502628,0,-8.14E-05,366.3071595,25.94876356,2.114108034,1
757.0842046,0.2,4.86E-06,537.136753,27.25203238,2.109969067,1
727.4829565,0,-6.00E-05,338.4822833,43.7754755,2.138787018,0
905.2408112,0.333333333,0.000156746,780.825222,18.61172226,2.204605989,1
858.812423,0.8,5.29E-06,1056.712885,34.21822767,2.069269746,0
803.4429521,0.533333333,0.000114155,1323.702802,58.2018027,2.173865123,0
939.0497262,0.066666667,0.000188963,755.7426225,7.523358727,2.052609737,0
1073.114972,2.8,0.000155699,843.9377255,22.47012956,2.166168163,1
916.7892363,1.4,-0.000174389,1068.887267,16.95601739,2.096791995,0
958.3180806,1.066666667,-0.000182599,1279.649183,5.217794043,2.194024899,0
982.913477,2,-2.78E-05,830.6421654,39.40914443,1.937701107,1
666.4376967,1,-5.92E-05,1682.035219,123.2638929,2.004833806,0
1065.888786,1.133333333,-0.000295094,1686.838792,1.521202407,2.105182513,1
1195.380627,2.266666667,0.000156795,448.8711874,0.932074801,2.156929366,1
774.1387791,0,-8.96E-05,722.9674177,16.42805196,2.191108562,0
770.620745,0.2,-5.06E-05,617.4826638,31.38647811,2.145841761,0
857.883372,0.533333333,-0.000206421,766.7188922,25.63986192,2.184297157,1
898.6994317,0.2,-1.95E-05,1328.578073,14.40997409,2.138009574,1
992.0057995,1.533333333,-0.000102469,1730.546299,10.31635338,2.084680055,1
925.6718151,1.866666667,6.96E-05,900.4959923,66.53327767,1.753663214,1
704.918845,0.8,-7.68E-05,1838.361772,87.00412988,2.192382417,1
1203.572568,2.266666667,0.00021043,480.0629703,1.152799625,2.157952549,1
987.5844459,2.2,-0.000103529,814.7378341,43.94701749,1.879378952,1
834.2071892,1.266666667,0.000107022,1630.356984,39.14272598,2.132569319,1
800.6333853,1.266666667,5.58E-06,1241.422094,43.14503882,2.074573711,0
648.0989654,0,-5.25E-05,324.7202177,39.96242896,1.517209274,0
1154.330543,2.6,-0.000353992,451.4234081,1.074374377,1.979062057,1
683.4084353,1.066666667,2.71E-05,856.5712205,136.5448877,2.104000385,0
1025.182201,0.466666667,-0.000168987,749.2205533,4.083320213,2.179692705,1
762.2055579,2.066666667,6.88E-05,2804.310688,108.6162604,2.22284417,1
873.2705831,0.4,3.14E-05,900.4107075,27.69293221,2.020260911,0
925.5306765,1.133333333,-7.71E-05,596.0280911,27.79761958,1.474181857,0
1106.409946,0,0.000112454,491.2828417,0.070004306,2.112628389,1
995.0223946,2.266666667,0.000681343,818.4772324,70.65671054,1.891888714,0
817.0274551,0,2.11E-05,298.5948825,9.870816746,1.725379749,0
802.3154982,1.066666667,0.000390872,654.8747589,58.6290871,1.66591532,1
1164.088867,3.066666667,0.000101744,581.9288809,35.09258164,1.988081174,1
733.0550691,0.066666667,-9.04E-05,532.8613233,55.12836847,2.177162987,0
819.0283581,0.066666667,-1.45E-05,620.7853694,57.84953917,2.117044352,1
835.5840394,0.4,2.44E-05,505.4011396,40.4582188,2.064175956,1
808.1767018,0.733333333,0.000196512,1526.157899,55.37110693,2.194927019,0
702.2504666,0.266666667,-9.51E-05,552.2544253,51.55100448,2.059589209,0
766.5666563,0,-2.88E-05,426.0126961,15.89458242,2.165252839,1
920.5875814,0.133333333,2.90E-05,502.2043252,9.734474794,2.158268178,0
902.9860558,0.066666667,4.18E-05,375.5185541,9.670821193,2.165477714,1
758.5771087,5.066666667,0.000101556,3074.829646,140.8151414,2.201104007,1
887.2362555,2.066666667,-3.79E-05,1195.275244,33.33576609,2.109448316,1
832.4939377,0,-5.76E-05,498.015589,23.48811249,2.120063423,0
798.8321988,0.6,-0.000115046,970.5794465,24.71912578,2.196021832,1
975.9011554,1.066666667,4.72E-05,1564.759172,7.598388376,2.117258642,1
815.4343891,1.333333333,-5.75E-05,1278.180062,43.96185517,2.18372044,0
973.603877,1.866666667,-0.000164794,934.459657,23.3012064,1.871267741,1
832.1806329,0.266666667,-6.58E-05,1525.306852,31.24904639,2.214094564,1
754.156341,0,7.85E-05,419.9110901,28.1682361,2.138794568,1
931.2995541,1.133333333,9.23E-05,937.2683765,14.85431084,2.057797987,1
795.0468387,0,-1.45E-05,196.6039521,20.00093713,2.181984396,0
971.2700781,0.933333333,-3.92E-06,842.2435927,5.188349274,2.173161526,1
1128.112794,0.4,-2.96E-05,898.6753981,0.304362915,2.179393834,1
946.7515716,0.4,-0.000611639,161.2174828,10.68388042,0.834705621,0
807.9933995,0,-3.41E-05,1278.101181,51.55461799,2.201763214,0
808.9311835,0,1.99E-05,1340.996844,56.4971295,2.202744789,0
753.2024102,2.133333333,0.000156961,1453.596057,63.55444904,2.166928986,0
725.6032882,2.533333333,8.36E-05,2408.171579,143.7279225,2.175751643,0
849.6996955,1.2,-0.000140793,1959.366253,38.44091414,2.170328696,1
741.9285918,0.2,6.92E-05,965.9587842,54.74508798,1.913914289,1
853.562862,0.133333333,-0.000120839,647.7282255,23.44372682,2.157998733,0
994.2511558,1.4,0.000223989,988.5143872,8.771318142,1.968823092,0
933.0227263,0.133333333,-4.94E-05,543.5603482,6.271734918,2.19192842,0
766.8710113,0,-0.000145281,731.7503829,18.91481634,2.118190229,1
956.8311247,0,-5.19E-05,403.3449041,3.143004978,2.144944845,1
926.0945849,0.133333333,8.18E-05,534.3111641,8.247743508,2.156875543,0
766.6498837,0,0.000119667,426.5475962,14.50067247,2.166463107,1
1064.108553,1.933333333,-0.000109284,632.1971904,5.858138248,2.179338788,0
974.796136,0.2,-7.28E-05,647.2882678,2.661859558,2.132764445,0
773.9850475,2.666666667,0.000230518,1754.504397,110.2010072,1.954421249,1
955.4690679,1.4,0.000126277,1160.979286,15.03167738,1.770281311,0
927.8135311,0,-6.09E-06,421.964558,4.440182947,2.186361843,0
810.1679139,0.066666667,5.61E-05,598.7981605,56.98288782,2.161437679,1
826.4799801,1.8,-0.000338921,994.3696342,97.98637041,2.070827647,1
1187.646418,2.6,-0.000156682,442.6863384,1.043229324,2.047772233,1
1070.812752,3.2,0.000107599,2014.149748,2.611938508,2.184305059,1
1025.213402,0.733333333,0.000168457,1622.174404,2.42343086,2.055030349,1
692.0909738,0,-7.67E-05,579.5101759,28.25347114,2.064982207,0
1134.211342,3.133333333,0.000138113,1804.907544,1.594481948,2.052304975,1
751.0118884,0,-1.89E-05,403.2197843,22.53569001,2.135884127,1
1004.572235,1.733333333,-7.09E-06,1750.239915,7.113858066,2.205913316,0
1256.324672,1.6,-0.000273485,347.3783549,2.321562573,2.202768938,1
1035.227296,2.466666667,3.52E-05,1866.860979,3.218704925,2.174475309,1
776.286008,0,-1.38E-05,729.0181568,20.06878326,2.210624159,1
747.6971135,0,4.96E-05,606.7550732,19.05582112,2.183349304,0
1156.680711,1,0.000239501,386.358691,7.794902265,1.877423462,0
1000.789016,1.4,8.02E-05,1045.589142,9.609608453,2.00484041,0
786.2561335,0.4,9.81E-05,856.0832221,25.53104769,2.16265107,0
1132.637439,1.2,-9.92E-05,1095.798512,1.768269583,1.995924812,1
895.5495058,0,3.20E-05,295.0276186,10.48558582,2.190201929,1
775.1658875,0,3.67E-05,706.6404467,15.29522373,2.187740673,0
937.1215803,0.4,-0.000157995,503.9273003,2.624568008,2.116992633,0
579.0726734,0.133333333,-2.72E-05,687.585424,40.84699696,2.004048205,1
699.6546232,0.133333333,8.61E-06,599.1322681,38.63836873,2.100120871,0
890.7733493,0,2.09E-05,578.3756875,15.35409673,2.017153717,0
774.553066,0.6,4.13E-05,760.5133845,28.90004451,2.046490764,1
724.449274,0,-6.80E-05,242.7403356,36.92351429,2.13441704,0
674.8899497,0.933333333,2.99E-06,1630.086679,116.2617557,2.068614883,0
1257.978649,1.266666667,-3.39E-05,279.8399272,2.835318872,2.072946337,0
951.7993546,0.2,2.87E-05,581.3338144,2.628934893,2.181196281,0
948.6777369,2.466666667,9.81E-05,1149.76937,39.2454993,2.084730129,1
811.2489733,0.4,0.000192382,1457.078362,51.35862467,2.173732184,0
991.1233787,2.266666667,-0.000314672,1111.462887,7.766000709,2.150185684,1
1106.582009,2.666666667,-0.000417939,983.4049218,32.33751637,1.918332189,0
891.9584537,0.533333333,-0.000129906,1067.621626,13.42846939,2.158175788,0
986.8931414,1.666666667,0.000271287,722.0481665,44.62140762,1.848586109,1
783.5238425,0,-5.56E-05,431.4378625,42.13325225,2.179496069,1
1186.961496,1.2,0.000316803,649.7112204,0.485442132,2.067292383,1
1172.610631,0.666666667,-0.000115224,465.0561258,4.420884606,1.962858841,1
834.8329339,0.266666667,2.39E-05,571.7758191,31.5883568,2.178709912,1
902.6252268,2.4,9.70E-05,865.3731506,15.93785127,1.924109058,0
1017.318236,1.466666667,-0.000189898,599.1877823,49.92280447,1.97400311,1
696.782519,1.333333333,0.000261946,849.4717912,118.0205106,2.012897029,1
1028.886257,0.666666667,0.000168849,789.2532104,2.98381392,2.206801982,1
958.968891,0.2,0.000108965,489.6096368,2.814905279,2.179842174,1
735.3723383,0.933333333,0.000251628,682.8362622,70.25969191,1.717827249,0
801.3218237,0.4,-0.000224361,634.4534233,16.6779432,2.170180642,1
840.7080069,0.266666667,9.08E-05,464.9981266,36.15906876,2.002228512,1
637.2805958,0.533333333,2.72E-06,960.8374206,66.39535154,2.057345462,1
855.4024211,0,5.55E-05,676.6953139,11.12497304,2.117140407,1
685.4716767,0.266666667,0.000409918,244.8918592,16.32148488,0.71663456,0
789.8011049,0,-1.69E-05,625.2940188,23.88295253,2.172200742,1
893.034613,0.733333333,2.69E-05,825.4783966,24.13951981,2.165438938,1
810.4243084,0.4,-8.99E-05,1434.264491,48.45552108,2.172489661,0
751.7097039,0,1.99E-05,483.2600001,18.50839316,2.177806594,0
922.4089545,0.2,-0.000140331,527.2102868,7.032694225,2.140842983,1
733.6643389,0.6,-0.000104485,625.0091667,94.18221388,1.647465653,0
889.4512065,0.133333333,-0.000352131,857.9205553,16.06053929,2.184977004,0
795.1300673,0.266666667,5.59E-05,860.9638529,15.42399232,2.177406253,0
654.3723312,1.266666667,0.000333812,1002.048101,69.41228702,2.135169123,0
826.9551047,0.333333333,-4.27E-05,1624.549209,36.61499292,2.217912079,1
891.5989089,0,-1.67E-05,606.3038659,15.54379654,2.130942247,1
724.5315831,2.733333333,0.000666914,1364.85149,144.4096556,1.428284483,0
775.1862643,0.2,4.67E-06,475.5499303,31.86880084,2.123344402,0
914.1532162,1.533333333,5.59E-05,1610.825581,30.89500305,2.163773027,1
841.6416386,0,0.000221827,675.6432807,44.74093963,2.175054547,1
661.5250884,0.266666667,0.000469051,245.5903623,18.00776982,0.655528818,0
625.6247056,1.8,0.000454688,868.2184879,274.4472852,2.140926217,0
790.1176366,3.066666667,-3.28E-05,1723.618888,77.44759854,2.122326295,0
795.8153992,0,4.75E-05,1232.880723,13.70433403,2.078269891,1
754.8827633,0,-9.85E-05,467.7817558,20.3893993,2.155630739,0
870.0433453,0.2,4.21E-05,1087.718436,15.22728625,2.177068836,0
1022.371271,1,0.000187101,842.7371569,2.617551173,2.212597643,1
826.7324043,0.4,-4.09E-06,890.1597156,25.50509527,2.171412495,0
891.2942305,0.133333333,-9.95E-05,1010.615279,14.82245695,2.190249626,0
823.326533,1.466666667,-3.94E-05,1679.645726,42.41284597,2.111290498,1
782.7433752,0.2,-3.26E-05,1243.429442,26.09121125,2.147638009,0
602.6779706,0.2,-0.000258329,850.4122374,49.86514079,1.824381906,1
812.3832975,0.866666667,-1.27E-05,795.8440284,40.89358303,2.07507661,1
722.213187,0,2.18E-05,638.8147571,67.56593942,2.099264022,0
745.2547957,0.133333333,8.70E-05,457.0276458,30.74867366,1.841639487,1
811.9977014,0,-1.79E-05,462.0391173,26.50415547,2.059959005,0
884.7998796,0,0.000122413,796.6925061,15.9502771,2.156229896,0
781.5393144,0.6,-1.95E-05,1024.203253,24.02103037,2.162859891,0
756.7440127,0.133333333,0.000295993,433.5250558,22.97450302,1.897638984,1
775.3856919,0.266666667,4.57E-05,720.6145306,38.25964252,1.875222295,0
971.5653487,1.066666667,9.78E-05,1372.359424,8.994334298,2.112790234,1
839.6395668,0.933333333,2.07E-05,1255.124879,39.45364724,2.134567411,1
832.0804306,3.133333333,-5.51E-05,1919.660286,99.41608612,2.124214701,1
1000.089924,1.8,9.94E-05,648.8744967,33.45089137,1.796483083,1
935.2146777,0,9.30E-05,421.2278369,3.679902661,2.195166656,0
948.637095,0,2.52E-05,500.6149447,2.901533291,2.205202951,1
821.9160575,2.133333333,-0.000102886,816.2939799,88.07468477,1.903697048,1
695.4022919,0.8,5.42E-05,1837.485201,121.06175,2.185143084,0
813.9388239,0,-6.54E-05,288.9913951,13.75132316,1.747578533,0
851.0265954,0.2,-0.00024365,697.7699565,42.78876848,2.052159553,0
779.1326005,0,5.77E-06,477.3223297,43.14686583,1.53964305,0
729.0048134,2.333333333,6.40E-05,2571.603153,137.2189962,2.190321176,0
713.863316,0.266666667,-9.50E-05,647.0933909,51.13289173,2.112032733,0
774.9460543,0.6,1.77E-06,749.0027763,48.37999376,1.714852787,0
900.3561313,0,0.000105197,657.3475678,15.66885709,2.030196151,0
752.5037259,3.533333333,-0.000320234,2069.42233,127.1642971,2.088191295,1
1051.616123,2.466666667,0.000224367,723.6837397,28.62244092,2.141516626,0
738.1565119,0.6,7.11E-05,626.00338,80.14479934,1.729553553,0
976.1052454,1,-1.11E-05,1558.409985,8.146616526,2.123128804,1
1016.479052,1.333333333,0.000300798,1563.122868,4.266509873,2.187154042,1
989.6306022,3.533333333,-0.000459336,1155.032153,79.64646281,2.109624314,0
921.3717484,3.066666667,-4.65E-05,1435.134502,21.81408474,2.046862634,1
767.5325535,3.4,-0.00010992,2911.015117,123.7043263,2.219138732,1
903.2253916,0.133333333,-7.14E-05,493.3662652,7.297930332,1.972684803,0
759.4854083,0,2.02E-05,622.1942093,97.09618685,2.154947525,1
1128.2104,0.8,-0.000127135,329.8426921,2.663352106,2.153375601,1
802.8546783,0.6,-5.01E-05,957.991231,35.85252162,2.174436183,0
704.3548848,0.8,-0.000179565,1968.851054,111.7941219,2.118685951,0
863.421089,1.2,-0.000128585,949.0245279,32.40506284,1.82662857,1
1154.833965,1.733333333,3.10E-05,611.5628571,2.070293849,1.927007,1
773.3194245,0.066666667,0.00024541,741.2550928,17.91389312,2.191801019,1
811.5462993,0.466666667,8.37E-05,1694.332176,53.83693291,2.218901462,0
881.3551532,0.2,3.13E-05,767.0550697,17.2264028,2.204130288,1
1019.983365,2.4,-5.67E-05,1976.321169,3.996415551,2.213565505,0
792.4774548,0,-0.000157818,210.1885701,19.78758621,2.150040582,0
896.2561241,0,1.75E-05,460.9012762,9.540917583,2.150873294,1
790.6211021,0.2,-6.58E-05,1202.238551,21.85582094,2.146800373,0
657.210361,1.2,-0.000241755,855.3395525,130.8580279,1.89939074,0
1071.565484,0.666666667,0.000170206,1122.659966,1.090692369,2.202060803,1
733.0461047,0.933333333,1.25E-05,2528.512461,82.92650075,2.208355004,1
726.4482496,0,-0.000180659,490.1309017,47.84079774,2.196109789,0
919.512159,0.8,-5.36E-05,1246.539687,16.7003596,2.156652594,1
918.5079598,0.333333333,0.000222531,864.8499546,8.465469199,2.173005238,1
810.8157582,0.733333333,0.00036912,815.0879013,21.64887702,1.351874672,0
909.9762982,0,5.38E-05,599.4423472,2.858741115,2.113968073,0
777.574944,0.066666667,2.77E-05,544.7536963,88.95269114,2.06610503,1
958.565667,1.4,0.000114655,1095.667607,15.2405167,1.807368314,0
963.8077106,1.266666667,-7.18E-05,1109.44175,10.80024816,1.939196689,1
823.4745744,0.133333333,-7.44E-05,969.7889801,16.6105664,2.196797717,1
759.5891222,0,4.57E-05,257.3672359,22.62051879,2.036795355,0
636.4442752,2.4,0.00031143,1575.753323,157.6788423,2.025465614,0
573.9716651,2.466666667,0.000349124,901.8580344,235.138795,1.673401993,1
739.8602173,0,-4.90E-05,401.5364834,47.42777652,2.18229193,0
825.9942976,0.466666667,-9.77E-05,1637.027151,29.42683213,2.189089644,0
714.877311,1.933333333,6.80E-05,747.5030752,135.922257,1.320795661,0
757.2368548,0,-4.64E-05,256.4702828,32.01027728,2.135312083,1
726.0603759,0.333333333,-6.71E-05,464.1917181,21.92169946,1.611387777,0
805.9592144,0,0.000109024,279.5954639,24.82440073,1.810778414,0
943.8437857,0,-7.61E-05,585.5716833,6.327893251,2.175869179,0
860.3312279,0.466666667,5.46E-05,725.6903133,25.06789893,2.169736611,0
808.5909362,0.866666667,6.50E-05,807.2035078,49.84191679,2.113180239,1
750.7876676,2.133333333,3.90E-05,1396.107219,64.68230614,2.177830149,0
996.1103093,2.266666667,-4.38E-05,1205.898158,8.231502906,2.122601156,1
994.6159183,2.866666667,-2.32E-05,1313.822197,29.75164186,2.078945334,0
704.5134322,0.8,-8.82E-05,1988.938101,121.3000075,2.126725702,0
803.1706033,0,-0.00014731,677.279071,19.7632622,2.112370964,1
1165.315822,2.733333333,-0.000527477,433.6973055,0.846939838,1.989153351,1
860.8654995,2.533333333,-8.60E-06,1487.804553,67.70329598,2.067805699,1
842.2151942,0.066666667,-4.31E-05,639.1684976,27.63664958,2.193267108,1
707.3507192,0,-3.10E-05,273.5340042,45.30138597,2.122333723,0
919.4172047,1.4,-7.88E-05,2173.220278,27.01911408,2.197982703,1
777.6169938,0,-4.47E-05,432.7590054,30.39361157,2.079621233,0
854.9238002,0.333333333,2.32E-05,723.2607049,26.17049997,2.183507217,1
768.4070598,1.333333333,8.20E-05,1401.241178,26.74080317,2.110519451,0
1052.511092,2.733333333,0.000174423,964.7359633,8.1442251,2.111444779,1
754.4924412,0.066666667,-0.000195619,628.0936037,18.54752701,2.164865242,0
717.1273032,0.066666667,-1.01E-05,555.23534,93.25879115,2.186528153,0
777.7377159,0.666666667,-0.000352703,821.10754,54.78798128,1.649167183,0
795.0648594,2.333333333,-0.000508214,1262.652037,53.52385587,2.05488453,1
829.3287489,0,-3.08E-05,319.8215039,21.00683766,2.205372424,1
615.8675107,0.2,5.62E-05,428.5210623,36.44863406,1.631021177,0
1043.065475,3.266666667,1.12E-05,2325.59275,3.367021688,2.212215637,0
957.5540439,0.2,0.000156875,492.6131027,2.346743677,2.176182676,1
878.5876604,0.133333333,-6.46E-05,648.6330038,14.14222797,2.048330805,0
938.0328135,0,1.49E-05,589.1011279,7.338304812,2.155262206,0
726.5088461,1.6,-5.40E-05,2516.650768,134.7863791,2.205622651,1
704.7817853,0.733333333,3.64E-05,1822.737296,115.8382287,2.094232174,0
950.8607569,1.266666667,-0.000105039,1058.223688,9.087826955,1.866856898,1
1167.484223,1.533333333,0.000838823,389.5461163,34.84605759,2.04911057,1
748.189092,3.533333333,-6.59E-05,2799.719301,132.2999418,2.215194276,1
931.0005923,1,-2.98E-05,1404.102527,25.30617081,2.159462309,0
922.2868896,2.6,-9.80E-05,863.3244076,48.67188688,1.930097209,0
793.1897507,0,2.36E-05,636.7551064,41.25673776,2.208322625,0
853.7972288,0,6.61E-05,655.9685681,49.55293562,2.191482588,1
828.9865086,1.533333333,0.00020391,516.444975,86.92566416,1.584863543,0
834.3345747,0.266666667,3.96E-05,579.5854113,33.72706619,2.186726176,1
885.8501616,2.666666667,-0.000292191,1831.188791,61.1498618,2.061432566,1
732.7800424,0,-1.60E-05,307.2836638,37.37941083,2.173849482,0
783.4125326,0.2,4.81E-05,1067.216864,26.94850625,2.146891717,0
726.2643355,0.933333333,3.64E-05,2205.655857,105.4753301,2.209221537,1
713.7634345,0.133333333,-3.97E-05,373.0736513,32.76725227,2.206511059,0
736.8295878,0,-0.000169463,556.5527313,38.597799,2.025654406,0
940.4258851,0,-0.000197437,672.6867647,2.975543462,2.136772949,1
864.7309139,0.8,-0.000160794,1133.909786,29.83454986,2.029742401,0
609.6527994,0.2,-1.55E-05,375.9965364,31.98194354,1.525533425,0
833.7112028,0,0.000124192,625.1377151,51.53515985,2.127561617,1
1206.473372,2.266666667,0.000278783,408.5798041,1.134979686,2.077772488,1
790.0294716,0.133333333,9.54E-05,811.9048669,17.62562625,2.201063826,0
680.9872993,0.666666667,0.000176813,1808.412306,106.8893968,2.117258642,0
707.6544997,0,-4.88E-05,272.3405775,42.65192666,2.123381579,0
749.3372407,0,9.32E-05,440.7361051,30.73535456,2.191474629,0
799.7831203,0.533333333,3.99E-05,1348.02579,60.40448771,2.192509892,0
933.2845264,1.866666667,5.01E-05,1763.057165,27.65776579,2.178207095,1
931.8741999,0.6,-3.73E-05,785.1569411,5.707561748,2.167200848,1
967.9064432,0.2,-5.09E-05,587.3093437,2.676685695,2.178977136,0
751.4376417,0.666666667,5.50E-06,1113.598235,35.5791824,2.020133487,0
865.5764949,0.8,6.82E-05,1097.102026,31.48364336,2.027598343,0
987.8486671,1.8,-0.000109669,2171.465688,12.65004336,2.205759899,0
739.0072429,1.2,-0.000127536,1206.601883,73.92169899,1.814844435,0
607.5169257,0.2,-7.31E-05,407.5251965,32.90044054,1.51501761,0
718.148271,1.666666667,-0.000589761,1377.41349,72.48396964,1.929870474,0
727.6050956,1.533333333,2.64E-05,2487.032452,135.0116735,2.198118906,1
716.2591855,0.666666667,-8.88E-05,707.4482362,88.16409213,1.878301795,0
937.76269,1.266666667,-0.000151395,1443.821994,19.79988506,2.169822286,1
731.7947909,0,4.59E-05,352.5390743,39.1488726,2.131324409,0
928.3927821,0.666666667,7.72E-05,1192.635015,13.56172362,2.134454631,1
767.7833149,0.066666667,-7.04E-05,423.5144447,25.36194524,2.050851708,1
935.2219795,1.266666667,-1.81E-05,604.421759,23.63091633,1.53310712,0
835.5583523,0.8,-5.11E-05,1816.922874,51.55119926,2.205751825,0
782.4074689,0.666666667,1.50E-05,760.4103018,50.75862421,1.654656743,0
798.1963102,0.866666667,5.04E-07,756.3467702,49.7811594,2.127979836,1
817.3294343,1.933333333,0.000255677,780.8618012,89.4371913,1.751815458,1
718.0398706,0.133333333,4.78E-05,395.761728,32.9307307,2.207359822,0
701.5911292,1.8,9.23E-06,1096.068314,127.8706127,1.934371901,0
819.3143547,0.133333333,-2.57E-05,1364.958826,19.65413726,2.086957373,0
914.243783,0.4,-7.63E-05,1112.217647,11.97634424,2.179936587,0
1008.163457,2.266666667,-2.68E-05,1825.947611,5.776795296,2.198615805,0
760.0473441,0,5.43E-06,587.0103537,96.92518954,2.157290822,1
732.9977187,0,-7.31E-05,401.8809094,27.76569817,2.17742195,0
1029.921287,1.533333333,0.000312212,491.1550004,32.74198214,1.945425499,1
1099.750325,0,-0.000313065,477.982124,0.083228974,2.028497341,1
890.7607136,1.2,0.000169633,997.3978526,7.976970764,1.925926154,1
1082.456966,0.466666667,-7.70E-05,1161.72692,0.739874053,2.185309191,1
813.2247187,0.4,3.66E-05,1486.089754,50.1649142,2.164392577,0
1043.738671,3.266666667,0.000165148,2310.913646,3.411092261,2.212914738,0
771.5485283,0,-4.83E-05,259.39366,34.86608778,2.180463891,1
1183.932012,2.2,-4.34E-05,585.320255,33.56106407,2.015176574,1
881.4848431,0,9.13E-05,300.5889521,10.04453673,2.184360379,1
891.813621,0.4,-5.24E-05,846.109235,13.8518835,2.206858561,1
813.6362581,0.066666667,8.28E-05,614.2742705,62.68453829,2.142721231,1
803.0900358,0,-7.11E-06,749.8621343,15.17110633,2.137639934,1
835.4190621,0.2,2.13E-05,530.6691886,26.15813111,2.166238011,1
635.827852,0,2.50E-05,246.3953912,40.36085492,1.292203515,0
750.4595298,0.2,-1.75E-05,562.8106816,112.0902301,2.201682799,1
889.7240322,2.066666667,3.62E-06,1328.955814,42.13443378,2.098516695,1
1109.285594,1.266666667,0.000847238,319.8634958,21.69061429,1.975945338,1
730.9231946,0.933333333,1.12E-05,687.2203766,102.0269734,2.060461587,0
767.0680191,0,-5.76E-05,413.7376908,28.04033698,2.152058623,1
706.2710221,0,-8.08E-05,403.0081324,24.24167869,1.974451475,0
709.7492817,1.333333333,-5.43E-05,531.4236538,103.5037341,1.193634318,0
765.6490135,0.066666667,-2.79E-05,358.9066703,19.47170913,2.107448513,1
905.0867156,1,-5.97E-05,786.3065616,7.304859253,2.164656002,0
856.2889709,0.066666667,-8.12E-05,358.6692809,5.874365469,2.024501979,1
723.383298,0,2.28E-05,243.6120602,37.43660522,2.128659816,0
798.0473768,0,-2.59E-05,722.9228931,24.18539315,2.149987129,1
841.049056,0.133333333,4.03E-05,485.1318918,29.75006066,2.105869081,1
733.575683,2.066666667,8.78E-05,2523.525198,132.847373,2.2178467,1
831.4833348,0,-3.38E-06,701.5016976,44.99202522,2.138613361,1
829.2584241,1.733333333,-7.60E-05,1929.359639,60.96880825,2.187043096,1
696.8263019,1.066666667,-5.03E-05,1888.464407,115.3653968,2.175500946,0
998.1186705,2,-0.000169127,2392.058067,10.03828466,2.191984163,0
765.8044146,0.066666667,-0.000348981,903.5839353,88.72306508,1.821013101,1
908.7637865,1.866666667,-2.56E-05,911.4664729,32.38984956,1.70823783,1
893.3278972,0.733333333,0.000104895,851.8803826,23.17495376,2.168327924,1
728.9718683,0.866666667,5.37E-09,2379.122297,95.31827138,2.214998683,1
848.3351502,1.733333333,-4.21E-05,1502.481068,31.40837115,2.170827565,1
1053.696472,0.533333333,0.000223246,1073.543808,3.69815596,2.193833403,1
948.6326534,0,-1.32E-05,491.1225155,2.815301296,2.205445064,1
697.3065169,0,-8.77E-05,576.8886599,29.88426127,2.081402101,0
963.2732047,0,-8.42E-05,470.8769569,1.725611279,2.107104628,0
1007.608622,1.4,0.000187027,946.1695283,8.140366232,2.050830962,0
713.3640642,1.533333333,-0.000127352,2091.387978,150.5927925,2.141774092,0
731.4675146,0.866666667,3.20E-05,2234.677885,86.26922135,2.202793088,1
1155.430518,0,6.29E-05,589.4122181,0.096002148,2.165159802,1
782.9260864,0.6,-0.000127434,861.9568938,32.9069869,2.073653566,1
884.3859694,0,2.24E-05,611.6319774,4.580124941,2.187685166,0
778.9537581,0.533333333,-6.51E-05,934.3557118,19.90248678,2.189923742,1
726.2738057,0,9.56E-05,355.3963304,39.63156631,2.133237409,0
830.1072756,0.066666667,0.000258783,391.6053632,15.97060641,1.871152177,1
1035.36719,3.4,-8.45E-05,2288.965905,3.052214138,2.170546921,0
903.5567102,1.2,3.16E-06,2168.761781,28.71729358,2.148095197,1
765.9369844,0,9.49E-05,416.2911034,19.99958772,2.115228424,1
732.7245996,0.066666667,0.000190023,624.7555562,69.18803584,2.188200705,0
1179.13563,0.666666667,8.59E-05,432.6019922,4.240558199,1.979931328,1
1142.478678,3.533333333,8.79E-05,1135.312257,4.431552856,1.812989238,1
776.9162269,0,7.52E-05,783.7626411,13.99488966,2.159015306,0
1019.868089,2.266666667,7.06E-06,1761.792033,5.283097313,2.204081925,0
804.3562932,0.333333333,5.65E-05,1409.398152,59.57556994,2.19277286,0
702.0732218,0.133333333,1.10E-05,680.8147916,36.02852676,2.108400302,0
870.8015651,0,4.31E-05,595.719276,17.49083334,2.188859396,0
1102.549242,2.933333333,-0.00061419,1100.012142,10.44786384,2.140472294,1
735.7112824,0.133333333,0.000191434,478.7288466,53.07127551,1.409574141,0
685.0218667,0.666666667,-0.000215941,746.0242317,47.34319403,1.796247176,0
755.9438401,0,-6.79E-05,242.396554,30.79808595,2.139754004,1
1080.335994,0.666666667,0.000127368,1020.057022,0.993579393,2.202076891,1
617.6493656,2.266666667,-6.86E-06,1140.725528,209.4925721,2.044929043,0
723.0122366,0.933333333,8.83E-06,2280.769699,112.6818039,2.19547028,1
896.5112269,0,2.50E-05,438.3924491,10.48385107,2.15136255,1
1015.020377,0.8,-0.000171683,1049.038007,9.77131114,2.133410134,1
709.4880196,0,-3.00E-05,423.9498025,26.58878943,1.971956001,0
786.4053313,0,2.94E-05,544.9645028,46.48634929,2.212760244,0
933.197184,1.6,-4.27E-05,1783.233919,26.47708034,2.193219267,1
905.3998785,0.2,-0.000107419,507.0611966,8.471439644,2.139043782,1
753.0735251,0,-7.64E-05,639.6763692,98.85281448,2.175250311,1
787.9230567,3.533333333,-0.000125292,3010.97334,113.9813628,2.220219432,1
752.4250785,0,-3.71E-05,390.6023054,17.74677674,2.188399061,0
892.3225413,0.733333333,7.10E-05,1068.91862,15.24594444,2.101349332,0
1123.879479,2.2,-0.000471439,613.9367897,38.69469463,2.011008014,1
983.4705136,1.266666667,-8.56E-05,1689.619614,9.517662847,2.180731584,1
989.5642364,2.6,7.19E-05,1896.399407,15.37439838,2.193187374,1
741.532575,0.066666667,-4.22E-05,553.1055573,55.73428089,2.183657258,0
1026.511275,1.8,-2.09E-05,1707.23043,4.035792185,2.197694334,0
962.7310625,0.533333333,4.20E-05,730.1372385,2.798763776,2.159439183,1
1011.212657,0.8,0.000225936,1649.323779,4.453981613,2.179456747,1
769.1652028,0.333333333,-2.16E-05,622.9112412,19.11045462,1.831220371,0
728.8373362,0,3.55E-05,291.0975853,42.16197758,2.127128645,0
975.2568765,2.066666667,4.04E-05,1756.669559,18.15529598,2.159470018,1
1130.625839,0.933333333,-0.000789994,502.3585266,7.1776479,2.055287319,0
859.9035493,0,2.28E-05,506.5239688,19.3445161,2.190885804,0
801.2036394,0.2,-1.39E-05,1407.050861,49.93882347,2.217372828,0
676.5750438,0.8,-0.000176927,753.1834539,106.0907068,2.066568562,0
719.4548172,0,-4.59E-05,342.8950116,23.21457031,2.168965868,0
750.831059,0.133333333,8.11E-05,555.9389577,95.57229079,2.208759833,1
805.6729911,0.333333333,7.00E-05,1378.083914,57.3244543,2.195829953,0
776.1645782,0.133333333,-8.34E-05,627.3999271,35.96723273,2.175430449,0
933.9109037,2.933333333,-5.20E-05,1887.953497,10.74747387,1.952250867,1
985.1220334,0.133333333,-0.000135036,809.4150328,2.807339996,2.138409542,0
1089.117994,1.666666667,0.000116281,2009.595583,1.556872947,2.180652844,0
939.0614339,0,-8.36E-05,587.4685939,6.491071478,2.161460851,0
930.2531787,1,-0.000479572,530.7161148,29.71756689,1.668299302,0
949.5865285,2.666666667,-0.000379864,1150.781176,43.01179257,1.800545115,0
835.122188,0.266666667,9.17E-05,566.4592917,29.51817481,2.174357936,1
727.8826126,0,3.76E-05,381.2785496,29.26720759,1.934199578,0
698.5252082,2.466666667,-2.01E-05,876.9338914,234.9096508,2.047282876,0
778.632575,0,7.78E-05,853.3660221,16.61511327,2.151232568,0
677.5005675,0.133333333,-2.69E-06,407.2166267,30.00925472,2.040826544,0
868.6027532,0.4,2.02E-05,893.8998625,30.23480119,2.019295576,0
947.8763404,0.2,7.03E-05,575.5600536,1.20431931,2.138477477,1
983.2841972,1.666666667,-5.48E-05,1877.427816,7.518690649,2.141448484,1
1067.795485,2.2,-0.000157284,790.0070576,5.850418684,2.139308168,1
1006.224862,1.2,0.00011054,1599.280271,4.789626606,2.188430801,1
862.8412852,0,-0.000117398,584.0592352,47.58828812,2.115398066,1
823.7027797,0,4.15E-05,398.3073952,18.8492982,1.938844222,0
1124.716153,3.266666667,-0.000343602,994.3515659,26.01648851,1.890874611,0
960.6721212,0.2,-5.52E-05,614.3135138,1.976364878,2.132779456,0
761.4464251,1.733333333,-0.00017966,2781.689501,100.0192058,2.223715136,1
713.4753348,0,-0.000112531,368.5869194,25.75201972,2.148163793,0
803.7459104,0.133333333,-0.000185571,596.0405253,31.67995695,2.139625522,0
729.7536251,0,9.25E-05,285.3599129,43.33003253,2.146381818,0
783.7939308,0,-4.38E-05,765.6248458,21.47374524,2.154188092,1
819.116173,0.133333333,3.66E-07,1148.902181,34.89543067,2.194463882,0
770.2433121,0.4,3.42E-05,541.4323307,52.68011811,2.137240273,0
863.7696405,0,-0.000101417,636.5951818,42.25611705,2.130904788,1
1010.634983,2.4,-0.000625748,846.7609991,22.73894022,2.155868823,1
728.9424895,0,-3.44E-05,283.555646,44.09657706,2.154794057,0
829.4858209,0.2,5.06E-05,553.2238979,26.21274191,2.179244431,1
876.4116451,0.666666667,0.000231051,678.8242231,9.753363698,2.056656625,0
697.19236,1.066666667,-0.000140433,1885.783511,121.4748897,2.177155141,0
739.6059296,0,-1.64E-05,394.7521796,26.58684858,2.197822488,0
1021.653209,2.8,0.000123997,1829.935272,3.685832751,2.118486153,1
860.0793925,0.533333333,-8.81E-06,746.2683629,28.83748826,2.162109886,0
1154.767877,1.666666667,-0.000216052,550.3227697,1.635084706,1.928651884,1
723.6610941,0,1.44E-05,394.7277284,31.66326133,2.168273484,0
768.9164798,0,-5.62E-05,433.6772042,13.36687889,2.20903521,1
685.8884418,0,3.52E-05,513.2446387,28.41062953,2.03209465,0
856.0601623,0.266666667,0.000104294,659.2141833,24.74577802,2.189462916,1
905.6479399,0.333333333,1.98E-06,666.6740039,11.29445537,2.168600167,1
855.8095414,1.266666667,3.15E-05,610.0138799,53.11442794,1.843694801,1
889.9526437,1,-3.79E-05,746.077148,7.428438422,2.040114781,0
749.1972415,0.266666667,6.96E-05,512.2319778,41.10158208,2.165826758,0
718.3162687,1.933333333,7.68E-05,726.7636394,124.7361956,1.268161326,0
926.3573878,0.733333333,-6.78E-06,967.5566125,10.87672748,1.977942776,0
899.5336016,4,0.000382982,1282.996624,84.77371507,1.865488594,0
939.658755,2.2,4.77E-05,810.882624,88.04838038,1.696738008,0
856.1060818,0.533333333,4.76E-05,979.02794,39.06904537,2.054995628,0
853.0110669,0.6,-6.13E-05,841.5912646,25.25263798,2.001886042,0
916.2583275,1.666666667,-1.91E-05,1179.105011,31.8697419,2.028450005,0
795.7101162,1.6,0.000186006,1353.429794,41.06783193,2.154180424,0
898.791087,0.133333333,1.65E-05,610.6940043,12.11694031,2.174279696,1
657.5464849,0.533333333,1.32E-05,896.4803297,49.64780876,1.900877685,0
650.4035157,1.4,-0.00011549,1174.664522,73.04980957,2.153398587,0
617.9770772,0.6,6.16E-06,661.7822462,63.20904054,1.794554566,0
1105.075641,0.733333333,0.000105376,901.4595661,0.370075053,2.173841662,1
776.1648774,0,-6.13E-06,750.7915894,18.79815798,2.214990534,1
761.3903038,0.266666667,-1.82E-05,560.1811468,41.63509056,2.191164259,0
564.8434109,0,-0.000103139,500.2456411,34.0705191,2.01444282,1
929.8782182,1.733333333,-0.000159969,941.0103575,16.08492971,1.890945329,0
681.996167,0.533333333,0.00028182,810.9037235,44.1069675,1.91953826,0
620.7946708,2.333333333,5.14E-05,806.5260903,190.547503,1.780872979,0
906.4962797,2.666666667,-0.000199597,1661.734346,18.87391388,2.11040935,1
727.3367364,2.266666667,5.18E-05,2318.771353,151.5568186,2.191737325,0
858.0855715,0.466666667,-3.23E-05,707.811166,28.22357443,2.173802561,0
813.1917934,0.266666667,-0.000182952,1373.191664,19.89706251,2.143001756,0
806.3512025,0.866666667,1.26E-05,906.6930066,47.346181,2.072720129,1
884.2140837,0.866666667,0.000113896,935.5825091,18.58781246,2.171857271,0
761.7627778,0.333333333,8.89E-05,610.5927807,17.03034051,1.858481025,0
718.8213406,0,-0.000107825,618.3893716,55.02190739,2.05962409,0
793.0727746,1.6,6.93E-05,1185.47824,39.41416188,2.147660863,0
833.34403,0,0.000175553,1219.44544,12.65082483,2.214444712,1
729.8838498,0,-8.39E-07,358.3212115,41.51138397,2.141342495,0
651.5570958,0,0.000307614,357.6590223,47.0242226,1.704342571,0
926.9297025,0,-4.80E-05,628.1286775,2.310444555,2.172114863,1
828.5838998,0.133333333,5.15E-05,561.6275123,15.49642424,2.150858009,0
788.4731709,3.8,7.91E-05,3104.658916,124.6205836,2.228816452,1
916.4003348,1.733333333,-4.36E-05,1198.543867,31.61413893,2.024468302,0
738.322294,0,0.00010574,400.9657501,28.32426059,2.191785095,0
1244.580245,1,-0.000542997,364.3473192,1.981178197,2.078788875,0
700.4434059,0.466666667,9.52E-05,627.7110983,41.01247841,2.028172797,0
830.0088783,0.133333333,-4.44E-06,1184.686358,13.693575,2.201996452,1
1208.195361,2.2,0.000193918,522.661987,0.480521772,2.147424726,1
766.0244898,0.666666667,0.000110412,968.1029731,25.37245705,2.098241123,0
879.4868467,0.266666667,2.18E-06,680.68331,8.735236111,2.093272124,0
1137.612772,3.133333333,-0.000180301,676.7862558,13.83133088,1.891069097,0
780.9655107,0.866666667,4.44E-05,1197.648206,21.22092285,2.130612657,0
907.7715535,0,-5.84E-05,615.7813031,1.507255115,2.197013792,0
988.4070807,2.4,-6.23E-05,2073.148198,7.898149097,2.182804696,1
840.4827953,0.866666667,4.67E-05,1899.555028,57.92164021,2.196301721,0
746.2082029,0,-1.37E-05,414.0044383,27.76599236,2.167869168,0
887.9165068,0.333333333,-5.47E-05,591.8996717,15.97284927,2.123084203,1
859.3538668,0.533333333,-8.88E-05,757.7661061,23.81664878,2.131354388,1
729.5673498,0,-1.09E-05,269.7127594,42.9026673,2.140600885,0
867.7298875,1,3.23E-05,682.6534281,9.084098731,1.937287436,0
776.6742744,4.2,0.000199761,3072.654662,133.5623083,2.219580696,1
972.7311214,1.133333333,-0.000236977,1053.043691,10.90697091,1.937417076,1
959.7475161,0,-0.000100413,526.9655041,2.835524768,2.195710048,0
850.9194893,0.133333333,-3.02E-05,599.9971422,35.27762423,2.125316679,0
764.375855,0,-6.02E-05,529.555634,96.05728918,2.090491022,1
777.9569388,0,1.36E-05,511.8364334,53.35581149,2.165826758,0
856.8180795,0.2,3.21E-06,634.0267004,22.00996186,2.160495805,0
762.9970782,3.333333333,-0.000101319,2909.37133,128.6704179,2.222663499,1
711.4566678,1.2,-1.93E-05,1891.305306,120.5168605,2.08118823,0
847.4116977,0,0.000243853,483.7040834,21.98769994,2.109910378,0
711.3076862,1.333333333,1.15E-05,2315.679477,140.8570113,2.203147353,1
707.0554304,1.4,-0.000141173,1947.426152,139.706444,2.150399556,0
823.9573458,0,-5.74E-05,324.4617934,17.66961894,2.181117504,1
842.2272286,0.133333333,-4.14E-05,499.9139972,29.93721644,2.083914953,1
862.037684,0.533333333,-1.11E-05,726.2440332,25.31029282,2.154602256,0
616.5753608,0.6,-0.000108086,710.3135228,62.43907659,1.815352486,0
750.4821396,0,-8.34E-05,606.850726,20.748613,2.182828368,0
774.1212831,0.6,2.51E-05,680.1507431,47.07241228,1.708890974,0
993.8978996,1.133333333,1.79E-05,1725.313472,11.78669599,2.089225518,1
809.9049428,0.333333333,-0.000179975,696.6732572,30.52779476,2.098364396,0
833.5608372,1.266666667,-0.000144192,1630.594631,37.88000744,2.136049779,1
669.9330455,1.666666667,-0.000426988,1563.527984,81.72743567,2.133725622,0
789.1125058,0,-7.19E-05,355.9291583,25.7408606,2.108143962,1
796.5290958,2.2,-0.000106833,1149.800947,96.81852633,2.070940531,0
724.0597656,2.266666667,-8.39E-05,2381.036945,117.3957913,2.193299004,0
782.4838912,0.466666667,0.00010566,1394.231719,19.37847289,2.08827026,1
725.2030152,0,9.34E-05,662.7750867,66.9274051,2.107302165,0
720.666856,1.333333333,-0.000252423,751.8130922,102.8814454,1.862087454,0
745.0817734,1.266666667,-3.17E-05,1435.282563,60.04735813,1.932330545,0
911.597786,1.533333333,-0.000108836,1197.205416,6.843349008,2.099133381,0
736.5231304,0.2,6.22E-05,706.6485609,31.42569062,2.104875901,0
819.6440746,0,5.90E-06,1299.228216,40.22742229,2.20727087,0
913.6876713,1.066666667,7.61E-05,1220.350745,13.55738573,2.083800595,0
864.2037692,0,-4.27E-05,630.9200122,40.90543283,2.137149806,1
727.8356778,0,6.69E-06,293.3779851,39.28744949,2.144823291,0
858.8803477,0,5.79E-06,572.8421449,48.41093198,2.176143483,1
796.1632224,0.533333333,-2.65E-05,1325.043524,63.31322613,2.190718768,0
1008.22859,2.333333333,-2.06E-06,1948.844592,9.946692007,2.165826758,1
633.3216364,0.533333333,0.000128971,926.0219623,61.47361333,2.07077121,1
1000.721385,1.8,7.66E-05,639.7364758,35.48059227,1.795298747,1
718.9384029,0,-6.37E-05,400.6131472,31.53658697,2.16758158,0
942.5206696,1.466666667,0.000121043,1482.438982,20.27920915,2.179897247,1
831.9991058,1.266666667,-4.46E-06,1620.892191,40.52078807,2.135139029,1
814.2111376,0.4,-4.81E-05,873.6116916,26.38215772,2.156775594,0
709.7698612,0,1.99E-06,413.1208011,25.37647174,2.001102753,0
859.034338,0.666666667,-0.000129504,928.5790529,40.83913987,2.065627676,0
931.8835335,0,9.23E-05,757.7940163,2.228372132,2.194903058,1
774.1825632,0.2,9.10E-05,579.8260543,36.41631159,2.151324318,0
729.9537584,0,-8.89E-06,285.0902502,44.81951654,2.15374344,0
759.4757135,2,-4.70E-05,2691.788199,106.5510678,2.22247465,1
765.204992,0,0.000163097,389.247092,27.41909019,2.149597769,1
883.347806,0,1.06E-06,542.1841149,5.433370143,2.199514054,0
806.1070457,0,9.42E-05,280.9924211,25.01018908,1.810403169,0
756.482749,0.2,3.29E-05,555.2237402,26.23765669,2.112628389,1
952.0863265,1.666666667,4.66E-05,1877.369983,16.06131588,2.212996061,0
931.9059269,0.133333333,5.16E-05,531.5686193,6.41153158,2.190623332,0
746.7427399,0,6.76E-05,473.914504,23.12671226,2.152961944,1
648.2048572,0,-3.81E-05,318.1917471,40.0528229,1.521655948,0
796.240024,2.333333333,0.000127214,1396.103105,65.92533095,2.163076492,0
813.0189706,0.066666667,6.12E-05,455.5407228,25.03329445,2.133064714,0
931.1756429,0.4,4.68E-05,597.8603641,6.457448777,2.177492588,1
692.8780335,0.266666667,4.33E-06,269.2263918,15.95523699,0.755369921,0
722.1678262,0,-1.76E-05,428.6196295,30.32828395,2.186425196,0
726.6964047,2.6,3.66E-05,2473.201331,151.3269521,2.18758209,0
1084.693503,0.933333333,1.23E-05,1115.257218,0.727569602,2.168071306,1
814.6451921,0,-3.97E-07,446.0673955,24.28737252,1.998553089,0
784.2027862,0.4,-4.38E-05,990.0829159,27.37370426,2.165082277,0
817.6325268,0.066666667,-5.83E-05,1284.255788,18.17299196,2.094015541,0
744.0014894,2.2,-8.92E-05,2498.147465,117.402032,2.212573256,1
731.2907642,0.066666667,-7.03E-06,596.9317432,70.15885708,2.199329526,0
802.4834853,0,3.62E-05,877.72464,16.55563547,2.182489116,1
744.6035863,0.2,0.000153068,997.298774,54.38827898,1.923804499,1
938.043928,0.933333333,0.000121999,1360.352723,17.06250795,2.17841919,1
1021.226429,3.933333333,1.29E-05,1334.83158,7.286211804,2.119174514,1
983.6898793,0.466666667,-0.000236136,789.0739979,5.762181228,2.190869895,1
611.2377428,0.6,7.42E-05,687.3416138,61.29295396,1.744957366,0
760.8098292,2.2,4.74E-05,2687.234215,115.3880302,2.224644455,1
718.4375595,0.133333333,-4.44E-05,375.9775179,32.50243714,2.188724448,0
916.7443634,1.533333333,-0.000128813,1156.480336,5.012091742,2.102470074,0
896.4270622,0.333333333,-8.46E-05,849.6263114,3.341731173,2.155116366,0
821.9206948,1.733333333,0.00016115,1905.876539,49.57262422,2.169900178,1
1018.787514,2.4,5.70E-05,2015.21598,4.062994829,2.212752113,0
1075.319128,0.733333333,0.000114458,1218.067076,0.869328373,2.188034117,1
789.5300847,0.133333333,0.000124352,626.4130875,32.45076021,2.19227089,0
798.5635414,0,-0.000107148,561.2270037,18.89738666,2.108935165,1
905.6637267,0,7.19E-05,537.3580009,7.890833406,2.143449242,0
1048.008608,1.2,0.000241703,472.8836586,38.80682949,2.03285506,1
866.6947953,0,2.76E-05,244.7306357,14.23667997,2.108964481,1
1174.423307,2.266666667,0.000351563,452.7744397,1.208474083,2.126710782,1
970.8840556,0.866666667,-0.00014219,1299.430089,5.720208466,2.140661404,1
724.4550738,1.066666667,-0.000200878,2284.13871,108.299198,2.200268565,1
862.1251332,0.333333333,0.000340311,551.0934308,28.46982673,2.028152517,1
861.9260485,0.733333333,9.38E-05,745.6789154,52.45939528,2.029857512,0
733.6156934,0,-0.000118734,392.287503,26.92821472,2.203630643,0
624.6902891,1.933333333,6.96E-05,968.4676872,250.119504,2.14549202,0
755.3879203,0,-5.21E-05,258.4813075,32.02371633,2.14303967,1
936.0430324,0,-8.72E-05,626.8079549,7.633085972,2.168545713,0
641.6084014,0,-9.49E-05,335.0088758,51.74331996,2.104284844,0
904.7108704,0,0.000144465,634.5369328,1.811747925,2.20284944,0
859.5465883,0.466666667,1.69E-05,710.554374,32.19248222,2.156867854,0
772.5719728,0,-8.89E-06,252.4642017,34.33939308,2.18559401,1
860.5373733,0.4,-2.93E-05,825.9544315,24.11476309,2.059135873,1
1044.841763,3.066666667,4.93E-05,2173.277098,4.193471406,2.208962309,0
886.377952,2.066666667,-0.000113038,1170.258258,32.56545222,2.078078007,1
754.9929418,0.666666667,-7.37E-05,1096.340079,34.12409919,2.021986085,0
1069.778111,1.866666667,7.46E-05,2030.280734,1.875732843,2.200621936,0
882.9815869,0,-2.64E-05,736.6894412,14.0561618,2.148194282,0
911.6168643,0.333333333,0.000180775,786.3427787,8.771650057,2.174631827,1
1008.821788,2.4,5.23E-05,1880.06216,5.149288374,2.214045716,0
815.0400642,0.066666667,-7.64E-05,596.5885259,57.04928619,2.135703446,1
695.7030635,2.6,-0.000470047,1083.429612,129.5393024,1.953667982,0
735.1357456,0.8,0.000290974,589.1812805,86.8023794,2.038672277,0
689.9722038,0.266666667,-4.92E-05,272.5601297,19.34317875,0.785978603,0
970.2312269,1.666666667,0.000219086,1745.141793,21.20775635,2.198695973,1
875.9892425,1.933333333,0.00013637,1062.441396,33.63277156,2.110379992,0
759.1024004,0.066666667,-3.76E-05,385.2589616,23.41992257,2.116667608,1
944.2912737,1.266666667,1.12E-05,1321.532885,8.955319063,2.040648556,0
914.3180397,0,7.09E-05,413.458506,5.900161506,2.206414104,0
737.8463622,0,-1.43E-05,394.35351,49.01027526,2.222647076,0
792.7933028,0.133333333,7.02E-05,1131.59985,28.31363848,1.95752189,0
741.1864784,1.533333333,-0.00014372,792.1084892,89.82145528,1.950554227,1
759.3735572,0.666666667,0.000262106,509.2607224,29.94266642,1.897947545,1
857.5782637,0.8,0.000447896,615.9241285,8.747351161,1.756219767,0
894.4950917,0.333333333,-2.17E-05,953.4642789,3.955306498,2.159100067,0
756.8990332,0.333333333,4.01E-05,508.022533,27.90303212,1.878883898,1
650.311732,1.266666667,-0.000169377,1206.835859,73.43957141,2.138590713,0
953.9536836,0.2,-1.46E-05,493.9350881,2.38135114,2.186203479,1
845.3732911,0.133333333,3.68E-05,532.0895293,31.51556021,2.09021046,1
1263.220934,1.2,-0.000139771,453.8258004,3.383349465,2.184162823,1
768.159766,0,-1.95E-05,275.964166,31.03424011,2.182670562,1
1197.460985,2.133333333,-0.000330399,675.0763434,7.727908927,2.208201212,1
735.3205883,0,-8.90E-05,548.6610632,42.49260784,2.03407836,0
854.6660736,0.133333333,-5.79E-05,661.9413301,23.0171321,2.165632829,0
1031.78803,2.333333333,0.000102813,1752.043922,4.509200616,2.186037223,1
654.2091378,1.866666667,0.000170354,772.6019761,123.7748184,1.832336886,0
842.3378772,0.2,8.54E-05,1641.654141,28.39346194,2.215707889,1
701.2552247,2,-6.40E-05,882.2458194,230.4938536,2.016732578,0
985.1067778,2.666666667,-0.000307936,1082.620113,45.27894617,1.878278518,0
814.905626,0.4,-8.10E-06,646.2156658,16.39151909,1.975361632,1
944.7140911,1.666666667,6.40E-05,976.6339939,5.496844071,2.046600934,1
804.9020098,0,-6.34E-05,596.6205142,54.75759144,2.14692978,1
891.6757861,1.733333333,1.18E-05,1147.948586,39.2957732,2.073611118,1
769.4288494,0,9.81E-05,312.5946314,12.38342362,2.193833403,0
782.3355724,0,-2.15E-05,376.9797995,41.45332322,2.166331148,1
580.7340924,0.266666667,-0.000122964,747.8051491,48.00633908,1.93080839,1
740.8374719,0.533333333,-0.000258897,576.1450886,37.85427396,1.578923158,0
725.824247,0,4.36E-05,264.9930199,36.38857269,2.112378318,0
752.7678575,0.2,5.46E-05,586.530404,24.11811973,2.120789952,1
708.7910273,0,-4.79E-05,445.8930548,26.24290542,1.956130759,0
730.1442592,0,1.59E-05,287.9509599,40.62077576,2.15052179,0
710.4376238,0,8.33E-05,268.2456152,46.07078101,2.127434692,0
885.0119315,0,1.10E-05,523.0479416,4.628887761,2.205299789,0
759.3291025,0.066666667,-7.77E-05,378.8013037,26.05341447,2.099917484,1
741.7460528,1.266666667,-0.000240979,667.8319394,115.1232251,1.898897563,0
980.0952788,0.866666667,0.000189861,1334.181244,5.35284046,2.113172879,1
783.3657846,0,-3.38E-05,589.1706101,14.53798169,2.184723984,0
791.3929545,0,0.000109733,207.8809873,20.56298115,2.139973217,0
706.4672195,1.133333333,0.000126732,1870.898154,135.1704123,2.089965931,0
829.3013966,0.2,6.34E-05,561.0052367,26.9610492,2.180983597,1
895.3708704,0,2.35E-05,325.8518531,10.844208,2.185269639,1
829.7077545,0.533333333,-3.43E-05,536.8780267,16.95842894,2.121301804,0
1050.499102,0.466666667,-0.000292287,768.3628239,1.409776681,2.089326124,1
724.053359,0,5.67E-05,362.265653,25.25657581,2.139436609,0
1020.878648,2.733333333,1.77E-05,2094.429171,6.040733889,2.199594294,0
984.2021588,0.6,-0.000206836,910.4945152,5.483839464,2.04930388,1
738.7460992,0.133333333,-0.00011779,739.9122803,77.34217564,1.904503189,0
776.8894136,0,9.78E-05,800.4157769,75.32951076,2.199209201,1
890.7100578,2.133333333,-9.47E-05,1231.783596,36.13391702,2.10992505,1
806.4007855,0.466666667,-5.28E-05,1308.030276,26.81585683,2.159207955,0
744.3383667,0,9.09E-05,410.2870463,47.03323641,2.181416891,0
1152.522679,1.333333333,-5.42E-05,843.4337645,0.524641403,2.098908428,1
1101.008088,0,0.00012708,448.1982052,0.074964521,2.105167911,1
848.0528938,0.133333333,-0.000195697,1692.97095,13.50128302,2.184044308,1
782.2612123,0.133333333,-1.44E-06,794.3635584,12.47168386,2.202334341,0
770.5870449,0,-3.63E-05,327.9835493,30.22325827,2.180298587,1
791.7485679,0.133333333,1.08E-05,735.7395531,32.20009759,2.170468978,0
940.3895985,0.4,-3.55E-05,916.8721337,6.330581983,2.189184934,0
734.523628,0,-7.56E-05,331.3987927,34.11177541,1.944529737,0
994.4468686,1.6,0.000303002,470.8009155,52.69627512,1.859251514,1
696.3532368,0,7.05E-06,614.04526,30.75220946,2.084336759,0
837.9321878,0,7.94E-05,525.8387448,27.72684116,2.190917623,1
812.0062044,0,-3.13E-06,462.7637361,26.92026972,2.060301013,0
856.4358837,0.066666667,8.61E-05,344.2245728,5.87661793,2.033391768,1
927.9422116,0.133333333,4.63E-05,524.388265,7.379793169,2.16915266,0
801.3962133,0.4,-1.60E-05,768.612401,59.22404957,2.184060109,0
1028.503869,3.533333333,6.60E-05,2402.981926,3.354193155,2.190249626,0
1156.312855,1.533333333,-0.000226008,512.3187582,3.186393296,2.070877032,1
807.2444297,0.2,8.01E-05,1247.938372,45.96497399,2.201361207,0
758.8679909,3.2,4.33E-05,2916.336876,126.7049516,2.217503529,1
748.6188277,0,-0.000155693,453.7860504,22.44699451,2.15723698,1
718.5848329,1.6,-4.59E-05,1986.544269,94.63185481,2.19745409,1
883.1436669,0,-6.45E-05,286.5438122,13.20242497,2.168491261,1
752.9647776,1.066666667,-2.30E-05,880.8022851,63.78848377,1.907224979,1
765.448553,0,4.78E-05,394.6558991,19.03401834,2.113474684,1
783.2648676,0.4,-8.09E-05,947.8933273,24.79656345,2.170009238,0
707.9176534,0.2,0.000380613,589.0195133,27.63411618,1.422180813,0
618.6397898,0.6,2.41E-06,705.8328966,62.03918472,1.794624142,0
860.738257,0.4,-8.11E-06,943.5167512,42.0662793,2.047544756,0
1002.002564,2.6,-3.76E-05,1840.826185,5.485458203,2.205711457,0
747.5982626,0,3.64E-05,479.8086575,22.63927271,2.148179037,1
812.4585964,0,9.97E-05,911.2655679,14.44964286,2.17298961,1
1126.401201,0.4,-0.00022138,1020.39026,0.368918208,2.182386575,1
837.0150814,0.4,-0.000119341,596.4709745,9.77471465,2.080311834,1
859.9132067,0.866666667,0.00046697,793.5533087,54.74009993,1.131598706,0
785.2657797,0,-3.29E-05,883.2985062,15.55122227,2.164501037,0
858.6223771,0.8,4.13E-05,744.7891104,34.34857769,2.079863245,0
773.9353484,2.933333333,0.000599919,1339.66982,140.9074081,1.502722744,0
823.8638673,0,-6.46E-05,293.2450114,17.56981421,2.172231972,1
762.0101409,0.666666667,7.24E-05,975.6428083,25.29857706,2.089994696,0
941.4084842,0.6,-0.000160254,853.3894176,9.693035889,2.100164459,1
1068.236532,0.733333333,5.92E-05,1212.191839,0.809008332,2.189526465,1
697.0544307,2.133333333,-3.76E-05,793.3459763,224.7742182,2.085180907,0
768.9437259,0.066666667,-0.000242682,863.8483175,84.10267962,1.816369363,1
926.4476516,1.133333333,5.15E-05,583.4549781,22.75601918,1.491221101,0
771.5840874,0,-6.45E-05,303.8199205,29.45497852,2.189129347,0
803.7497716,0.4,0.000178626,638.9413344,16.80818665,2.107682716,1
1075.378946,0.933333333,8.39E-06,1176.840776,0.876127959,2.178529183,1
779.8518699,0.333333333,-0.000146154,753.3992241,33.87927714,1.884612364,0
929.8507564,0,3.95E-05,546.2414772,8.251711685,2.149834421,0
951.4085887,0,-7.25E-05,620.9738906,2.692590164,2.18064497,0
729.8117657,0,-3.86E-06,309.8076112,48.09472062,2.117975739,0
805.8383708,1.733333333,3.86E-05,590.3198767,95.20716402,1.525361682,0
706.016484,0,2.51E-05,268.2944758,46.50439415,2.124795322,0
971.0652649,0.866666667,0.000216583,746.123238,6.416544808,2.204041623,1
708.2189763,0,-9.45E-06,245.3290173,46.10041499,2.121457637,0
844.9738514,0,-2.04E-05,222.4056767,18.21688027,2.051328977,0
951.8011138,0.133333333,0.000166609,860.9294706,3.722732108,2.179409562,0
911.2873799,1.6,-0.000401973,520.0129143,26.04962181,1.653954367,0
803.2252238,2.733333333,-0.000211594,1460.076059,71.14076233,2.172630246,0
841.5751112,0.933333333,6.13E-06,564.2275758,21.30388117,1.850418046,0
721.9546936,0.933333333,-2.84E-05,672.8766678,95.84566247,1.899729569,0
807.5476569,0,-7.96E-05,280.6361588,17.98792173,1.78511581,0
907.6465938,0.466666667,-2.41E-05,589.9009979,8.741262983,2.121368587,0
953.8302148,0.4,3.50E-05,597.3943993,2.426288086,2.141456055,1
1037.000245,0.866666667,1.94E-05,1044.782681,3.444691473,2.167496097,1
746.5405994,0,-1.75E-06,825.6178601,48.25614588,1.92016308,1
718.0390106,2,5.93E-05,2193.800868,125.7347895,2.16237271,0
769.6337434,0.866666667,-2.45E-05,1492.248236,46.73116801,2.022617827,0
